x,y,z,signal,cytoplasm.p
170,989,28,0.12211716549299,1
170,990,28,0.149177936658818,1
169,989,29,0.140406189261924,1
169,990,29,0.16197090977758,1
170,988,29,0.105919544198001,1
170,989,29,0.130670211912455,1
171,989,29,0.12205728239478,1
167,988,30,0.149991979385148,1
168,989,30,0.15413083385926,1
168,990,30,0.166709403996452,1
168,991,30,0.1805715498,1
169,988,30,0.125321841324278,1
169,989,30,0.145078480480074,1
169,990,30,0.16707175277632,1
170,988,30,0.117601878214947,1
170,989,30,0.136850521989286,1
171,988,30,0.113035084309117,1
171,989,30,0.130098682447059,1
172,989,30,0.123579720336342,1
172,990,30,0.148227478778992,1
166,988,31,0.158010295040316,1
166,989,31,0.163882593634382,1
167,987,31,0.139543320378342,1
167,988,31,0.152875784407352,1
167,989,31,0.161683972339023,1
167,990,31,0.164759974030862,1
167,991,31,0.171738324887078,1
167,992,31,0.182249859413942,1
168,988,31,0.142026025335438,1
168,989,31,0.152984147050244,1
168,990,31,0.163440720377381,1
168,991,31,0.181947266641008,1
169,987,31,0.124515493396984,1
169,988,31,0.133034190510839,1
169,989,31,0.144791935869095,1
169,990,31,0.16532115133419,1
170,987,31,0.122040691206467,1
170,988,31,0.128438269595441,1
170,989,31,0.13931594253293,1
171,988,31,0.127062841598241,1
171,989,31,0.138154409152199,1
172,989,31,0.139159458511677,1
165,988,32,0.160117618584941,1
165,989,32,0.16608632168826,1
166,987,32,0.154401572937082,1
166,988,32,0.160106168816404,1
166,989,32,0.162307424367289,1
166,990,32,0.162561075445448,1
167,986,32,0.132980130503792,1
167,987,32,0.150514682693292,1
167,988,32,0.157535874863065,1
167,989,32,0.161088099117515,1
167,990,32,0.163188178459443,1
167,992,32,0.177113095799278,1
168,987,32,0.143311160758355,1
168,988,32,0.149293069800562,1
168,989,32,0.152920555197543,1
168,990,32,0.160440245564376,1
168,991,32,0.182157487164243,1
169,987,32,0.139920319316136,1
169,988,32,0.143772686948031,1
169,989,32,0.147443394932395,1
169,990,32,0.163888000790462,1
170,986,32,0.13058301574379,1
170,987,32,0.138425841455159,1
170,988,32,0.141730330152632,1
170,989,32,0.146501972086874,1
171,987,32,0.138514782240422,1
171,988,32,0.144388201548462,1
171,989,32,0.153275659774715,1
172,988,32,0.144740175058758,1
172,989,32,0.159192740712724,1
173,986,32,0.121573168619343,1
173,987,32,0.130922199250282,1
173,988,32,0.144095810738815,1
174,985,32,0.107245776317876,1
174,986,32,0.118306102525595,1
174,987,32,0.128914573034319,1
164,989,33,0.173298439614914,1
165,988,33,0.156836607112157,1
165,989,33,0.161461966988434,1
165,990,33,0.164243879469038,1
166,987,33,0.160564298202902,1
166,988,33,0.157378351004104,1
166,989,33,0.155964772516784,1
166,990,33,0.157436697453257,1
166,991,33,0.159624331130171,1
167,987,33,0.153355623294435,1
167,988,33,0.154452490323501,1
167,989,33,0.15352954192792,1
167,990,33,0.157194161084818,1
167,991,33,0.164569279349026,1
167,993,33,0.167267739076713,1
168,988,33,0.152509472690442,1
168,989,33,0.149847268637497,1
168,990,33,0.156056197358794,1
168,991,33,0.175177195277639,1
168,992,33,0.187202040281741,1
168,993,33,0.181674447887771,1
168,994,33,0.172928141853458,1
169,988,33,0.152425673324955,1
169,989,33,0.148896649005139,1
169,990,33,0.160585302924597,1
169,991,33,0.191711666221154,1
170,987,33,0.152758398283907,1
170,988,33,0.154799923209141,1
170,989,33,0.154189677119762,1
170,990,33,0.165624287133483,1
171,988,33,0.163363622188233,1
171,989,33,0.168867275207422,1
171,990,33,0.177145180569435,1
172,986,33,0.141203224864858,1
172,987,33,0.152447683223101,1
172,988,33,0.165637435303609,1
172,989,33,0.178290319175643,1
172,990,33,0.187439781842973,1
173,985,33,0.123396939974837,1
173,986,33,0.135561077016758,1
173,987,33,0.148287477414725,1
173,988,33,0.162058152161254,1
173,989,33,0.178654782292183,1
174,984,33,0.104744550695832,1
174,985,33,0.117975018199471,1
174,986,33,0.132638254973012,1
174,987,33,0.147359630228165,1
174,988,33,0.15898768471677,1
175,985,33,0.114938276157973,1
175,986,33,0.130959321456446,1
175,987,33,0.146294998168037,1
164,989,34,0.165017068127209,1
165,988,34,0.15096214796641,1
165,989,34,0.151274307246255,1
165,990,34,0.153876662862247,1
166,987,34,0.160625117155048,1
166,988,34,0.149916302307534,1
166,989,34,0.145911367376418,1
166,990,34,0.148390132503977,1
166,991,34,0.150124835982932,1
166,993,34,0.148874454246956,1
167,987,34,0.148657440117364,1
167,988,34,0.145427530891036,1
167,989,34,0.143162071138579,1
167,990,34,0.148215485984097,1
167,991,34,0.155904554359758,1
167,992,34,0.157939794043736,1
167,993,34,0.155773373056058,1
167,994,34,0.156574822192373,1
168,988,34,0.148614575696303,1
168,989,34,0.143698615841988,1
168,990,34,0.148653361642799,1
168,991,34,0.164170709555674,1
168,992,34,0.17293375697708,1
168,993,34,0.167791343577537,1
168,994,34,0.163510782331373,1
168,995,34,0.160174185756238,1
169,988,34,0.152580817110941,1
169,989,34,0.146162800134134,1
169,990,34,0.153609066405053,1
169,991,34,0.176584950673796,1
169,992,34,0.191275789361601,1
169,993,34,0.179756582773485,1
169,994,34,0.167885194707531,1
170,987,34,0.159281022934106,1
170,988,34,0.160072882456006,1
170,989,34,0.156188441607706,1
170,990,34,0.16362532623175,1
170,991,34,0.183236653844774,1
170,993,34,0.182614692250556,1
171,986,34,0.153207273114807,1
171,987,34,0.164295455419338,1
171,988,34,0.173144243236618,1
171,989,34,0.173407460821688,1
171,990,34,0.177800856012887,1
171,991,34,0.186023742406412,1
172,985,34,0.136287646284369,1
172,986,34,0.147474197236047,1
172,987,34,0.162327447020038,1
172,988,34,0.17767058745562,1
172,989,34,0.184221033541375,1
172,990,34,0.189019341535943,1
173,984,34,0.117262798692226,1
173,985,34,0.130367746230796,1
173,986,34,0.14165566980522,1
173,987,34,0.154448065236368,1
173,988,34,0.168895824529374,1
173,989,34,0.180464134564797,1
173,990,34,0.191131355904004,1
174,983,34,0.102512862561369,1
174,984,34,0.111890638928048,1
174,985,34,0.12565907224663,1
174,986,34,0.14100470829271,1
174,987,34,0.154064746396061,1
174,988,34,0.163087903443166,1
174,989,34,0.176971296597207,1
174,990,34,0.19368505866903,1
175,984,34,0.10736996760143,1
175,985,34,0.120079950117368,1
175,986,34,0.140907529682052,1
175,987,34,0.157452491432662,1
175,988,34,0.159951001922914,1
176,985,34,0.11326887448706,1
176,986,34,0.130827862862691,1
176,987,34,0.149203840171491,1
165,989,35,0.139915778691479,1
165,990,35,0.141145040168237,1
166,988,35,0.141784505697201,1
166,989,35,0.136646679137325,1
166,990,35,0.137587928676561,1
166,991,35,0.139112515616052,1
166,993,35,0.139283499596451,1
167,988,35,0.139287289227207,1
167,989,35,0.13684788773376,1
167,990,35,0.139855733840737,1
167,991,35,0.145816095134891,1
167,992,35,0.146819804259101,1
167,993,35,0.145285211770112,1
167,994,35,0.146189847468286,1
168,989,35,0.138239005726594,1
168,990,35,0.141620812134509,1
168,991,35,0.152336848077215,1
168,992,35,0.157010779928193,1
168,993,35,0.153842394432903,1
168,994,35,0.151790170733033,1
168,995,35,0.14833551791682,1
169,988,35,0.148555420484489,1
169,989,35,0.142320091439169,1
169,990,35,0.146814963236884,1
169,991,35,0.161618832283513,1
169,992,35,0.169454517775956,1
169,993,35,0.16209998829836,1
169,994,35,0.155824717931313,1
170,987,35,0.160446935186962,1
170,988,35,0.159985455212295,1
170,989,35,0.154886657227713,1
170,990,35,0.1586375944681,1
170,991,35,0.171978723811341,1
170,992,35,0.178464260916632,1
170,993,35,0.169017162036108,1
171,986,35,0.150560724396238,1
171,987,35,0.166981009605697,1
171,988,35,0.174226494769016,1
171,989,35,0.171109095982659,1
171,990,35,0.172779433507508,1
171,991,35,0.179112414867332,1
171,992,35,0.182629377069739,1
172,986,35,0.147251729735365,1
172,987,35,0.166269517984848,1
172,988,35,0.17893781456246,1
172,989,35,0.180102663870104,1
172,990,35,0.182475561965269,1
172,991,35,0.184969612707131,1
173,985,35,0.133208501971902,1
173,986,35,0.142491422032137,1
173,987,35,0.154646362287221,1
173,988,35,0.166414794866363,1
173,989,35,0.172852222147046,1
173,990,35,0.181817818400155,1
173,991,35,0.187446309713027,1
174,984,35,0.115790180530615,1
174,985,35,0.129954006360664,1
174,986,35,0.144322067870253,1
174,987,35,0.153119314398489,1
174,988,35,0.15872211016623,1
174,989,35,0.165167024278408,1
174,990,35,0.178264149926666,1
175,985,35,0.124800478251402,1
175,986,35,0.147082802322877,1
175,987,35,0.158936836652865,1
175,988,35,0.158765228769841,1
176,987,35,0.152135154223183,1
164,990,36,0.139709382460258,1
165,989,36,0.132115528557363,1
165,990,36,0.132193689691724,1
165,991,36,0.13225736242069,1
166,988,36,0.134566865076944,1
166,989,36,0.130958050543692,1
166,990,36,0.130454873076947,1
166,991,36,0.131566032097618,1
166,992,36,0.131918999230613,1
166,994,36,0.136497416211264,1
167,989,36,0.135103375119096,1
167,990,36,0.135328788826616,1
167,991,36,0.137685835173615,1
167,992,36,0.138398539938456,1
167,993,36,0.136774070810267,1
167,994,36,0.13732360193127,1
167,995,36,0.139316497113041,1
168,989,36,0.136721247054717,1
168,990,36,0.138842458209616,1
168,991,36,0.143812050582143,1
168,992,36,0.145587284624192,1
168,993,36,0.143488372211248,1
168,994,36,0.141145617855853,1
168,995,36,0.139315203092782,1
168,996,36,0.142739226911628,1
169,988,36,0.148843097363193,1
169,989,36,0.142711232169787,1
169,990,36,0.145117220211561,1
169,991,36,0.151881514698776,1
169,992,36,0.15410279290241,1
169,993,36,0.149620976844801,1
169,994,36,0.144964883987387,1
169,995,36,0.142284875602135,1
170,987,36,0.160880062253466,1
170,988,36,0.161430344368368,1
170,989,36,0.155455725743868,1
170,990,36,0.156676125492606,1
170,991,36,0.164310810356155,1
170,992,36,0.16558136494366,1
170,993,36,0.159354100417451,1
170,994,36,0.152810679013099,1
171,986,36,0.147616319943181,1
171,987,36,0.166662137595762,1
171,988,36,0.172391458505022,1
171,989,36,0.168362237586556,1
171,990,36,0.169234534332021,1
171,991,36,0.174337191269874,1
171,992,36,0.174134769529446,1
171,993,36,0.170279247723171,1
172,986,36,0.144496275347546,1
172,987,36,0.163776079591859,1
172,988,36,0.172368247016636,1
172,989,36,0.172657437436893,1
172,990,36,0.175219170059773,1
172,991,36,0.178281515216384,1
172,992,36,0.17927709049897,1
173,985,36,0.13350755929663,1
173,986,36,0.140256949443368,1
173,987,36,0.150953170700867,1
173,988,36,0.158749434790437,1
173,989,36,0.164033254564472,1
173,990,36,0.171868570336841,1
173,991,36,0.177209003497182,1
174,985,36,0.132250984749417,1
174,986,36,0.142561356894854,1
174,987,36,0.148392581899466,1
174,988,36,0.150829222046112,1
174,989,36,0.154258791666066,1
174,990,36,0.163255687034176,1
175,986,36,0.146481937880373,1
175,987,36,0.153833278522332,1
175,988,36,0.152622745678065,1
175,989,36,0.150531562725414,1
176,987,36,0.148312814793535,1
176,988,36,0.150627851697145,1
164,991,37,0.13218025267779,1
164,992,37,0.133762504395047,1
165,990,37,0.123210716595144,1
165,991,37,0.125428043415489,1
165,992,37,0.125748290321949,1
166,989,37,0.123742628243878,1
166,990,37,0.122094034880871,1
166,991,37,0.123975020417791,1
166,992,37,0.124770461602907,1
166,993,37,0.125490029296619,1
166,994,37,0.131354563769133,1
167,990,37,0.128880177513699,1
167,991,37,0.128340316883378,1
167,992,37,0.128871616183239,1
167,993,37,0.127738401049413,1
167,994,37,0.128469788231736,1
167,995,37,0.132183071793353,1
168,989,37,0.138887367644835,1
168,990,37,0.136488670020767,1
168,991,37,0.135297790109175,1
168,992,37,0.135139515256314,1
168,993,37,0.133523699888603,1
168,994,37,0.130351501655052,1
168,995,37,0.130596221682677,1
168,996,37,0.133177376163186,1
169,988,37,0.1508476849423,1
169,989,37,0.147505496351048,1
169,990,37,0.145525760893155,1
169,991,37,0.14395583702961,1
169,992,37,0.142748261945933,1
169,993,37,0.139740797112782,1
169,994,37,0.134851075829957,1
169,995,37,0.134565074245337,1
170,987,37,0.155878142481983,1
170,988,37,0.160947605489456,1
170,989,37,0.156517584903442,1
170,990,37,0.155855554896221,1
170,991,37,0.156708210262764,1
170,992,37,0.154563452560663,1
170,993,37,0.150263631209402,1
170,994,37,0.142893469504934,1
171,986,37,0.141432936568236,1
171,987,37,0.157464518888814,1
171,988,37,0.163515981519912,1
171,989,37,0.16189154705298,1
171,990,37,0.165397810480751,1
171,991,37,0.167963286519378,1
171,992,37,0.1650813647588,1
171,993,37,0.160924174479776,1
172,986,37,0.13927333229442,1
172,987,37,0.152545323983852,1
172,988,37,0.158551911840988,1
172,989,37,0.161479228294381,1
172,990,37,0.168252315187102,1
172,991,37,0.17220639050056,1
172,992,37,0.170717712623242,1
172,993,37,0.170999473980765,1
173,986,37,0.13652794122486,1
173,987,37,0.14405637778219,1
173,988,37,0.149015802852686,1
173,989,37,0.153599349699362,1
173,990,37,0.161431118469773,1
173,991,37,0.167812798895572,1
173,992,37,0.173064857404513,1
174,985,37,0.131237085215671,1
174,986,37,0.138284169344364,1
174,987,37,0.143250861725062,1
174,988,37,0.144788712372202,1
174,989,37,0.146405833313923,1
174,990,37,0.151783342465419,1
174,991,37,0.161408230486452,1
175,986,37,0.140945044715794,1
175,987,37,0.146693995450225,1
175,988,37,0.146658433000622,1
175,989,37,0.145858474298354,1
175,990,37,0.149945949235955,1
176,987,37,0.14142639714443,1
176,988,37,0.143406213478589,1
176,989,37,0.144735784632881,1
163,992,38,0.133580856301269,1
164,991,38,0.124706465368875,1
164,992,38,0.126307873207458,1
164,993,38,0.128846197928163,1
165,990,38,0.116158190649114,1
165,991,38,0.120204372475967,1
165,992,38,0.120072405517111,1
165,994,38,0.129721487095475,1
166,989,38,0.116444042034954,1
166,990,38,0.114924249902671,1
166,991,38,0.118006432851995,1
166,992,38,0.11803209373587,1
166,993,38,0.119182685713166,1
166,994,38,0.126090281390251,1
166,995,38,0.137888776832897,1
167,990,38,0.122497757647752,1
167,991,38,0.11949399001534,1
167,992,38,0.11939119628106,1
167,993,38,0.118868550741677,1
167,994,38,0.121290274994094,1
167,995,38,0.127175952833331,1
167,996,38,0.127082448315907,1
168,990,38,0.136603109937373,1
168,991,38,0.126767539243013,1
168,992,38,0.12460459593478,1
168,993,38,0.122952721306117,1
168,994,38,0.121639036561248,1
168,995,38,0.124931913737652,1
168,996,38,0.1286163129185,1
168,997,38,0.136459219506135,1
169,989,38,0.160099178796258,1
169,990,38,0.148453493281632,1
169,991,38,0.136293873756862,1
169,992,38,0.132428658352402,1
169,993,38,0.130093645011053,1
169,994,38,0.127204224865228,1
169,995,38,0.129858387506567,1
169,996,38,0.136450623514419,1
170,988,38,0.163121513308629,1
170,989,38,0.161698298991884,1
170,990,38,0.155848691967351,1
170,991,38,0.148557592589922,1
170,992,38,0.14387347032941,1
170,993,38,0.140658927593651,1
170,994,38,0.135541574282863,1
170,995,38,0.13677794131729,1
171,987,38,0.148997732784077,1
171,988,38,0.155455101841243,1
171,989,38,0.156264488405394,1
171,990,38,0.159939459724359,1
171,991,38,0.15898442655862,1
171,992,38,0.154794828004373,1
171,993,38,0.150318754161662,1
172,986,38,0.136220068387122,1
172,987,38,0.143413469235038,1
172,988,38,0.148134528841678,1
172,989,38,0.152274053433424,1
172,990,38,0.160463745896569,1
172,991,38,0.163484347346094,1
172,992,38,0.161369155696148,1
173,987,38,0.139098177409438,1
173,988,38,0.142327947990738,1
173,989,38,0.144450453165894,1
173,990,38,0.151548027192172,1
173,991,38,0.157366184902924,1
174,986,38,0.13672331517638,1
174,987,38,0.140740762821245,1
174,988,38,0.142495384969178,1
174,989,38,0.141240012012205,1
174,990,38,0.144698893501763,1
175,987,38,0.142488059890215,1
175,988,38,0.144521416312567,1
175,989,38,0.142778035965629,1
162,992,39,0.12152413449455,1
163,991,39,0.117109572829124,1
163,992,39,0.121000957482561,1
163,993,39,0.12216398129734,1
164,990,39,0.111284020716895,1
164,991,39,0.114576343313187,1
164,992,39,0.116561959631005,1
164,993,39,0.117163032041051,1
164,994,39,0.120038680114125,1
165,991,39,0.111378599733284,1
165,992,39,0.11195518974219,1
165,993,39,0.112432925846354,1
165,994,39,0.119833832085713,1
166,990,39,0.108375421342239,1
166,991,39,0.110165397972233,1
166,992,39,0.109771357249785,1
166,993,39,0.110009029488503,1
166,994,39,0.117503948610389,1
166,995,39,0.128369836720524,1
167,991,39,0.112976506784918,1
167,992,39,0.109416876575239,1
167,993,39,0.107586993284774,1
167,994,39,0.111305533803691,1
167,995,39,0.116935296029317,1
167,996,39,0.117245814676334,1
168,989,39,0.164465076056965,1
168,990,39,0.14415781972745,1
168,991,39,0.12304050671615,1
168,992,39,0.114199540789182,1
168,993,39,0.110767533327492,1
168,994,39,0.111659968263229,1
168,995,39,0.116122951704576,1
168,996,39,0.120923940169679,1
169,988,39,0.166310741773081,1
169,989,39,0.176724069405331,1
169,990,39,0.156082378161523,1
169,991,39,0.132378515067387,1
169,992,39,0.122119106523378,1
169,993,39,0.118202927517489,1
169,994,39,0.11754380905585,1
169,995,39,0.121320568932644,1
170,987,39,0.14476972955716,1
170,988,39,0.16034683347697,1
170,989,39,0.165077170746713,1
170,990,39,0.15351707542918,1
170,991,39,0.138987700429874,1
170,992,39,0.131302063518648,1
170,993,39,0.127884521354847,1
170,994,39,0.125879587163171,1
170,995,39,0.127241231533869,1
170,996,39,0.13351727600232,1
171,987,39,0.137086195428855,1
171,988,39,0.145448535612732,1
171,989,39,0.149341803527795,1
171,990,39,0.149836038390254,1
171,991,39,0.145425231694327,1
171,992,39,0.140964813185992,1
171,993,39,0.136813076278058,1
172,987,39,0.133907711954048,1
172,988,39,0.140139690411199,1
172,989,39,0.145282230902017,1
172,990,39,0.149290516421302,1
172,991,39,0.14919897604177,1
172,992,39,0.147059313544436,1
173,987,39,0.133150421259052,1
173,988,39,0.138117298499787,1
173,989,39,0.140788618463303,1
173,990,39,0.142966639418297,1
173,991,39,0.144858219746084,1
173,992,39,0.146839769143089,1
174,987,39,0.136916898296293,1
174,988,39,0.140222796551547,1
174,989,39,0.139283488042698,1
174,990,39,0.138328293124427,1
174,991,39,0.140858957707351,1
175,988,39,0.140213414904673,1
175,989,39,0.137943044807485,1
175,990,39,0.136778311037364,1
176,989,39,0.13470954236419,1
183,989,39,0.128434734147235,1
184,989,39,0.112808388135091,1
185,989,39,0.0958849716738965,1
185,990,39,0.125076589824047,1
186,988,39,0.0667267958598007,1
186,989,39,0.0764747486735368,1
162,992,40,0.106155610465149,1
163,991,40,0.102531568086355,1
163,992,40,0.104172004500233,1
163,993,40,0.105527883548529,1
163,994,40,0.107667291863312,1
164,990,40,0.099661881749471,1
164,991,40,0.101208952290952,1
164,992,40,0.10242003971533,1
164,993,40,0.101319614130553,1
164,994,40,0.106372289535924,1
164,995,40,0.118061232299189,1
165,990,40,0.09560624895323,1
165,991,40,0.0985154722305101,1
165,992,40,0.0995586143113465,1
165,993,40,0.098123488075973,1
165,994,40,0.105771425093419,1
165,995,40,0.119051804807026,1
166,991,40,0.0988513398100896,1
166,992,40,0.0980653495943616,1
166,993,40,0.0970952156743565,1
166,994,40,0.104226330243583,1
166,995,40,0.11284808682802,1
167,990,40,0.115973249735927,1
167,991,40,0.104329320391652,1
167,992,40,0.0968314261785474,1
167,993,40,0.0944476271180801,1
167,994,40,0.0991260649324577,1
167,995,40,0.104238357699735,1
168,990,40,0.147644557313821,1
168,991,40,0.117120421802541,1
168,992,40,0.101447387077322,1
168,993,40,0.098066227679537,1
168,994,40,0.101660657791167,1
168,995,40,0.10686471045927,1
168,996,40,0.112526800083853,1
169,989,40,0.188072488426837,1
169,990,40,0.162116660362939,1
169,991,40,0.126372863064188,1
169,992,40,0.109392440389108,1
169,993,40,0.105616743457526,1
169,994,40,0.107885923518227,1
169,995,40,0.112202312950296,1
169,996,40,0.119403477919763,1
170,988,40,0.155062008526484,1
170,989,40,0.164510285889744,1
170,990,40,0.149093039686862,1
170,991,40,0.127175040086899,1
170,992,40,0.11771394961233,1
170,993,40,0.115433042493037,1
170,994,40,0.116760892138235,1
170,995,40,0.117871161519978,1
170,996,40,0.122250310934582,1
170,997,40,0.12386480917453,1
171,988,40,0.136968358709071,1
171,989,40,0.14153985499209,1
171,990,40,0.137367275114992,1
171,991,40,0.129330704531178,1
171,992,40,0.126060946413142,1
171,993,40,0.124190671204611,1
171,994,40,0.125272460586916,1
171,995,40,0.124806601740125,1
171,996,40,0.126109899661669,1
172,987,40,0.127857023424355,1
172,988,40,0.135161767783258,1
172,989,40,0.14020373286024,1
172,990,40,0.137237422492808,1
172,991,40,0.132739558273245,1
172,992,40,0.130423666391965,1
173,987,40,0.130126862048937,1
173,988,40,0.138477798679286,1
173,989,40,0.145111212260361,1
173,990,40,0.139819894101079,1
173,991,40,0.134007628804004,1
173,992,40,0.130331652308588,1
174,987,40,0.133657134174003,1
174,988,40,0.13933902693004,1
174,989,40,0.143896947554098,1
174,990,40,0.137805890213842,1
174,991,40,0.133509581203284,1
175,988,40,0.133823519760983,1
175,989,40,0.134767045389424,1
175,990,40,0.131001665958653,1
176,989,40,0.129146676364424,1
180,989,40,0.119960114598434,1
180,990,40,0.120610637068356,1
181,989,40,0.129753433220606,1
181,990,40,0.129657525522701,1
182,988,40,0.114494716053135,1
182,989,40,0.126566538614119,1
182,990,40,0.133197433477191,1
183,988,40,0.10502318098648,1
183,989,40,0.121488676028718,1
183,990,40,0.138471351685498,1
184,988,40,0.0935280524181726,1
184,989,40,0.117591456730366,1
185,988,40,0.0808903155154138,1
185,989,40,0.10427708587747,1
186,987,40,0.065711931587737,1
186,988,40,0.067602518292825,1
187,988,40,0.0604377823043839,1
162,993,41,0.102830891147386,1
162,994,41,0.108101608966303,1
163,992,41,0.0907240202787763,1
163,993,41,0.0947760078661643,1
163,994,41,0.0992939178459813,1
163,995,41,0.101774219622597,1
164,991,41,0.0895734687396132,1
164,992,41,0.0884069903528941,1
164,993,41,0.0886523053987634,1
164,994,41,0.0948724759210559,1
164,995,41,0.106134755942233,1
164,996,41,0.11215962183552,1
165,991,41,0.0881643153394271,1
165,992,41,0.0868451541159642,1
165,993,41,0.0859209001463722,1
165,994,41,0.0929061543695922,1
165,995,41,0.106208919478295,1
165,996,41,0.111023876429939,1
166,991,41,0.0900682235209256,1
166,992,41,0.0864028244857471,1
166,993,41,0.0851706168021506,1
166,994,41,0.0905188371915472,1
166,995,41,0.0992589792990033,1
166,996,41,0.102381796795192,1
167,991,41,0.098230753112396,1
167,992,41,0.0869711766692584,1
167,993,41,0.0846384856321234,1
167,994,41,0.0886661641246563,1
167,995,41,0.0937581858335099,1
167,996,41,0.0979956804679473,1
168,990,41,0.1490316430471,1
168,991,41,0.112565216310275,1
168,992,41,0.0923159136023343,1
168,993,41,0.0891586254861357,1
168,994,41,0.093292419416737,1
168,995,41,0.0978504035864326,1
168,996,41,0.10382014652746,1
169,990,41,0.166411063004368,1
169,991,41,0.121995146314871,1
169,992,41,0.100074789749437,1
169,993,41,0.0964380844581142,1
169,994,41,0.0992295634456284,1
169,995,41,0.103094894387612,1
169,996,41,0.109171913918815,1
169,997,41,0.111230931225042,1
170,989,41,0.167354322896505,1
170,990,41,0.148586037928103,1
170,991,41,0.120172345474571,1
170,992,41,0.108406847548516,1
170,993,41,0.107224586736144,1
170,994,41,0.108058143750122,1
170,995,41,0.108846190533761,1
170,996,41,0.110779422138616,1
170,997,41,0.110861060952421,1
170,998,41,0.113158674797551,1
171,985,41,0.130299163157099,1
171,986,41,0.122453922711497,1
171,988,41,0.135829632435394,1
171,989,41,0.141971641823326,1
171,990,41,0.132160669067629,1
171,991,41,0.119782810715523,1
171,992,41,0.115655278918672,1
171,993,41,0.116766853874426,1
171,994,41,0.117279921353146,1
171,995,41,0.115921523586847,1
171,996,41,0.112979684066803,1
171,997,41,0.110116687352505,1
172,985,41,0.134270522884009,1
172,986,41,0.125539248281449,1
172,987,41,0.124611562847421,1
172,988,41,0.134486520283398,1
172,989,41,0.145101449339661,1
172,990,41,0.137186031402544,1
172,991,41,0.124945304536576,1
172,992,41,0.118254884741616,1
172,993,41,0.12014490531284,1
172,994,41,0.123040622253673,1
172,995,41,0.124146697623328,1
172,996,41,0.120010280990953,1
173,986,41,0.12257440524056,1
173,987,41,0.126938546330916,1
173,988,41,0.142195426451771,1
173,989,41,0.159937553355228,1
173,990,41,0.150832376220492,1
173,991,41,0.131321312069992,1
173,992,41,0.118077684842475,1
173,993,41,0.118206925115787,1
174,987,41,0.129588653605196,1
174,988,41,0.141900332064084,1
174,989,41,0.156530756181073,1
174,990,41,0.148053513930498,1
174,991,41,0.131474595701856,1
174,992,41,0.120115685873255,1
175,988,41,0.129959575269276,1
175,989,41,0.134822780690556,1
175,990,41,0.129056476220159,1
175,991,41,0.121609724691644,1
176,989,41,0.123744361306724,1
176,990,41,0.121384934886749,1
177,989,41,0.1161431014486,1
177,990,41,0.117311416881936,1
178,988,41,0.110328005482209,1
178,989,41,0.109912567210488,1
178,990,41,0.115058562273246,1
178,991,41,0.121816606180463,1
179,987,41,0.115498170994795,1
179,988,41,0.108561933565739,1
179,989,41,0.109238451978354,1
179,990,41,0.11308982598755,1
179,991,41,0.117693950067086,1
180,987,41,0.118748287733908,1
180,988,41,0.121723806441929,1
180,989,41,0.124040148919549,1
180,990,41,0.120325282493865,1
180,991,41,0.11771409981111,1
180,992,41,0.12044622717302,1
181,987,41,0.124344567185347,1
181,988,41,0.135513510218508,1
181,989,41,0.135286987350767,1
181,990,41,0.125309085981731,1
181,991,41,0.120883617574126,1
181,992,41,0.124179221436074,1
182,987,41,0.114526176920668,1
182,988,41,0.124743252516222,1
182,989,41,0.125539444695238,1
182,990,41,0.123831811657939,1
183,987,41,0.0953316451452612,1
183,988,41,0.105344825896969,1
183,989,41,0.119946920213299,1
184,988,41,0.0939714218860974,1
185,987,41,0.0721827665432171,1
185,988,41,0.0823200288178312,1
186,987,41,0.064673312800929,1
187,987,41,0.0602144771566604,1
162,993,42,0.093194882639757,1
162,994,42,0.0985012380076673,1
163,992,42,0.0787247379516547,1
163,993,42,0.0857120949577946,1
163,994,42,0.0906991854881913,1
163,995,42,0.0910400442887676,1
164,992,42,0.0753623880626261,1
164,993,42,0.0779145079635855,1
164,994,42,0.083157785620773,1
164,995,42,0.0910217893601218,1
164,996,42,0.0933615917318021,1
165,992,42,0.0747159498441445,1
165,993,42,0.0749181809476591,1
165,994,42,0.0801143308491842,1
165,995,42,0.0909092269282658,1
165,996,42,0.0938231756902397,1
166,991,42,0.0806811406067624,1
166,992,42,0.075035624839865,1
166,993,42,0.0739485034008701,1
166,994,42,0.0772477929098042,1
166,995,42,0.085151657094614,1
166,996,42,0.0888969387732466,1
167,990,42,0.107956320531036,1
167,991,42,0.0906109437049427,1
167,992,42,0.0778299980423322,1
167,993,42,0.076116628567013,1
167,994,42,0.0788432216815682,1
167,995,42,0.0831816210117833,1
167,996,42,0.0872714240304738,1
168,989,42,0.15909107924617,1
168,990,42,0.142067041156129,1
168,991,42,0.105224782410494,1
168,992,42,0.0840777300407543,1
168,993,42,0.0821750869951334,1
168,994,42,0.0852367389266065,1
168,995,42,0.0880258493948976,1
168,996,42,0.0923589513296798,1
168,997,42,0.0936348957426364,1
169,989,42,0.185305850006784,1
169,990,42,0.159977644875735,1
169,991,42,0.114589491483313,1
169,992,42,0.0914184932224765,1
169,993,42,0.0891601274739357,1
169,994,42,0.0912339740212493,1
169,995,42,0.0935242685642919,1
169,996,42,0.0968235811807306,1
169,997,42,0.0971928795426119,1
169,998,42,0.0986207269140316,1
170,985,42,0.112791692963007,1
170,986,42,0.114979754128756,1
170,988,42,0.151616252099548,1
170,989,42,0.163941945259985,1
170,990,42,0.142300045678915,1
170,991,42,0.112189187887675,1
170,992,42,0.0994769061750277,1
170,993,42,0.0995830620512292,1
170,994,42,0.0992942297972936,1
170,995,42,0.0993288332854546,1
170,996,42,0.0986938506123858,1
170,997,42,0.098294887991455,1
170,998,42,0.101990274790748,1
171,984,42,0.121702605306444,1
171,985,42,0.127492745167851,1
171,986,42,0.12036836643622,1
171,987,42,0.12266653486146,1
171,988,42,0.130999667159504,1
171,989,42,0.137532990584339,1
171,990,42,0.125044169995072,1
171,991,42,0.110636825727637,1
171,992,42,0.106330742242626,1
171,993,42,0.109012737873274,1
171,994,42,0.108228642472924,1
171,995,42,0.106452021980598,1
171,996,42,0.10106774233025,1
171,997,42,0.0982251842037838,1
172,984,42,0.125004032259555,1
172,985,42,0.131827066023502,1
172,986,42,0.122175974092236,1
172,987,42,0.12075135021771,1
172,988,42,0.129592397020944,1
172,989,42,0.143436507417139,1
172,990,42,0.135166539482961,1
172,991,42,0.116533687599108,1
172,992,42,0.107707048325002,1
172,993,42,0.111158003940477,1
172,996,42,0.109383717306116,1
173,985,42,0.118756433129285,1
173,986,42,0.11678735023102,1
173,987,42,0.121225435336144,1
173,988,42,0.139423981670758,1
173,989,42,0.163748003973751,1
173,990,42,0.156606571903715,1
173,991,42,0.125693987686103,1
173,992,42,0.107521910998026,1
173,993,42,0.107891041830499,1
174,986,42,0.114827475673343,1
174,987,42,0.12281498902486,1
174,988,42,0.139586878024541,1
174,989,42,0.15984858946246,1
174,990,42,0.153716273672714,1
174,991,42,0.126870621821101,1
174,992,42,0.110887507491453,1
175,987,42,0.117119636147384,1
175,988,42,0.124913912991557,1
175,989,42,0.131424718153145,1
175,990,42,0.12688999746372,1
175,991,42,0.1152673732387,1
176,988,42,0.116628208846736,1
176,989,42,0.117268806643426,1
176,990,42,0.114373286116383,1
177,988,42,0.110323360873782,1
177,989,42,0.110632158011705,1
177,990,42,0.11090371740594,1
177,991,42,0.112640904941642,1
177,992,42,0.114069260678163,1
178,987,42,0.112303754895556,1
178,988,42,0.107414218472768,1
178,989,42,0.107647038135516,1
178,990,42,0.111586567274819,1
178,991,42,0.115935318767102,1
178,992,42,0.118073721905434,1
179,986,42,0.128959239840739,1
179,987,42,0.11573753008135,1
179,988,42,0.107592435102111,1
179,989,42,0.108802713763828,1
179,990,42,0.112524396903373,1
179,991,42,0.114479881035172,1
179,992,42,0.115887382248778,1
180,986,42,0.120035294864699,1
180,987,42,0.127512998895646,1
180,988,42,0.12735700013199,1
180,989,42,0.124381689391511,1
180,990,42,0.119242499488862,1
180,991,42,0.115105308755082,1
180,992,42,0.117950015879477,1
181,986,42,0.11361651534024,1
181,987,42,0.142735252420835,1
181,988,42,0.148494624639846,1
181,989,42,0.136902560089679,1
181,990,42,0.122495204268492,1
182,986,42,0.102403321435741,1
182,987,42,0.128137017057775,1
182,988,42,0.133714764290513,1
182,989,42,0.126288948161179,1
183,986,42,0.0871085623379471,1
183,987,42,0.0981779871256076,1
183,988,42,0.10742128936918,1
184,987,42,0.0805916279107599,1
185,987,42,0.0703825475118024,1
186,986,42,0.0621109620523013,1
162,993,43,0.0829243305016473,1
162,994,43,0.087552804114171,1
163,992,43,0.0695482452808005,1
163,993,43,0.0767017336913702,1
163,994,43,0.0813569022486005,1
163,995,43,0.0790711887683478,1
164,991,43,0.0679768945288454,1
164,992,43,0.0656767677425891,1
164,993,43,0.0686198608447586,1
164,994,43,0.073012337512649,1
164,995,43,0.0760469652174749,1
164,996,43,0.0769022952776764,1
165,992,43,0.0649696087788553,1
165,993,43,0.0646731394946444,1
165,994,43,0.0689574383796796,1
165,995,43,0.0757566714138724,1
165,996,43,0.0794211172644855,1
166,991,43,0.0723001931047946,1
166,992,43,0.0660305436382452,1
166,993,43,0.0646861547966188,1
166,994,43,0.06772383846893,1
166,995,43,0.0743079001970238,1
166,996,43,0.0795239109987655,1
167,990,43,0.0977153402219578,1
167,991,43,0.0823386014746655,1
167,992,43,0.0703509884373744,1
167,993,43,0.0691045580846873,1
167,994,43,0.0708345765170816,1
167,995,43,0.0748416142311172,1
167,996,43,0.0792805831982931,1
167,997,43,0.0814955703837953,1
168,989,43,0.139352048008891,1
168,990,43,0.124166847367353,1
168,991,43,0.0955839386575242,1
168,992,43,0.0779180896268009,1
168,993,43,0.0772821768766714,1
168,994,43,0.0781217071805924,1
168,995,43,0.0793561447383842,1
168,996,43,0.0823007051670968,1
168,997,43,0.0833816569023595,1
168,998,43,0.0854158451948776,1
169,989,43,0.161881876562298,1
169,990,43,0.140031628165867,1
169,991,43,0.104941761693969,1
169,992,43,0.0854413269955918,1
169,993,43,0.0843435587738456,1
169,994,43,0.0848529983743408,1
169,995,43,0.084572536813952,1
169,996,43,0.0848317221394665,1
169,997,43,0.0849511648308216,1
169,998,43,0.0883852635216798,1
170,985,43,0.111184450479508,1
170,986,43,0.114111813147911,1
170,989,43,0.147088117048939,1
170,990,43,0.128138854104392,1
170,991,43,0.103927885267727,1
170,992,43,0.0929957710493654,1
170,993,43,0.0931152541788536,1
170,994,43,0.09289848267806,1
170,995,43,0.0911267089848263,1
170,996,43,0.0881322247923929,1
170,997,43,0.0876242871796976,1
170,998,43,0.0939319138300818,1
171,984,43,0.114446063202168,1
171,985,43,0.121399735243455,1
171,986,43,0.119365523843432,1
171,987,43,0.118811590742801,1
171,988,43,0.123634981933629,1
171,989,43,0.128705785176369,1
171,990,43,0.117822381577736,1
171,991,43,0.103908590501374,1
171,992,43,0.100452759202425,1
171,993,43,0.10156604411352,1
171,994,43,0.10051431759472,1
171,995,43,0.0974195757166377,1
171,996,43,0.0914929975942315,1
171,997,43,0.0887277051863223,1
172,984,43,0.116357065387583,1
172,985,43,0.123362867959282,1
172,986,43,0.119216260917372,1
172,987,43,0.116909115226588,1
172,988,43,0.123889337790679,1
172,989,43,0.136362664798101,1
172,990,43,0.129729343647045,1
172,991,43,0.109078201433848,1
172,992,43,0.10195743902669,1
172,993,43,0.103598522450697,1
172,996,43,0.100416272452638,1
173,985,43,0.112690643845325,1
173,986,43,0.11322066067868,1
173,987,43,0.117115684764095,1
173,988,43,0.1332695751066,1
173,989,43,0.155812251432573,1
173,990,43,0.150577974148433,1
173,991,43,0.117207537094939,1
173,992,43,0.101026506988264,1
173,993,43,0.100572987548937,1
174,986,43,0.107403843203196,1
174,987,43,0.116296084682904,1
174,988,43,0.133402350828117,1
174,989,43,0.15260154454258,1
174,990,43,0.147557996601533,1
174,991,43,0.117913910403516,1
174,992,43,0.102395846157998,1
175,987,43,0.109513558374548,1
175,988,43,0.119316616809915,1
175,989,43,0.124852678104327,1
175,990,43,0.120521291901762,1
175,991,43,0.10749118957064,1
176,988,43,0.111176859664242,1
176,989,43,0.109566890495199,1
176,990,43,0.106337986445323,1
176,991,43,0.104018385809552,1
176,992,43,0.104027871440196,1
177,987,43,0.104559274723828,1
177,988,43,0.105333179714643,1
177,989,43,0.104667891549271,1
177,990,43,0.104506462522031,1
177,991,43,0.105660913452598,1
177,992,43,0.106420306930514,1
177,993,43,0.107972126064193,1
178,986,43,0.116784970158044,1
178,987,43,0.108476193169865,1
178,988,43,0.104706250006932,1
178,989,43,0.105123167158949,1
178,990,43,0.107399175487263,1
178,991,43,0.108958238823639,1
178,992,43,0.10966558264741,1
178,993,43,0.111533431567957,1
179,985,43,0.129898120860753,1
179,986,43,0.126025961651155,1
179,987,43,0.114220926784703,1
179,988,43,0.107793539714776,1
179,989,43,0.107910613886908,1
179,990,43,0.110718672508983,1
179,991,43,0.111411262191057,1
179,992,43,0.111684612416901,1
180,985,43,0.115170945621941,1
180,986,43,0.12166342653237,1
180,987,43,0.129712532937437,1
180,988,43,0.12699113901142,1
180,989,43,0.118535525385165,1
180,990,43,0.115362102453869,1
181,985,43,0.101828429828424,1
181,986,43,0.119579938378755,1
181,987,43,0.148679415354253,1
181,988,43,0.148845743172472,1
181,989,43,0.12961150692726,1
182,985,43,0.0928204197505942,1
182,986,43,0.105788166480513,1
182,987,43,0.131904094890136,1
182,988,43,0.134501355301361,1
183,986,43,0.0890326202634699,1
183,987,43,0.0994576114086742,1
184,986,43,0.0779994511505504,1
184,987,43,0.0803925914197584,1
185,986,43,0.0683951750236344,1
163,992,44,0.0602656198412496,1
163,993,44,0.0657132371617477,1
163,994,44,0.069421760577414,1
164,991,44,0.0586229593300524,1
164,992,44,0.056997571678555,1
164,993,44,0.0599201164322457,1
164,994,44,0.0637056687145462,1
164,995,44,0.0635669716949706,1
165,991,44,0.0599529868575605,1
165,992,44,0.0564611598432978,1
165,993,44,0.0563076566901402,1
165,994,44,0.059752898975099,1
165,995,44,0.0629914966231617,1
165,996,44,0.0671314544806191,1
166,991,44,0.0648502642943948,1
166,992,44,0.0593135675436057,1
166,993,44,0.0580253530456985,1
166,994,44,0.0609522362333806,1
166,995,44,0.0654831672920482,1
166,996,44,0.0707071906210151,1
166,997,44,0.0729378042565133,1
167,990,44,0.0858336404320697,1
167,991,44,0.0741717450029559,1
167,992,44,0.0655403237047135,1
167,993,44,0.0637901150901618,1
167,994,44,0.0648548511340609,1
167,995,44,0.0678379317729667,1
167,996,44,0.0719579940689506,1
167,997,44,0.0727971315452931,1
167,998,44,0.0744803283964612,1
168,990,44,0.103715642837838,1
168,991,44,0.0850931951079379,1
168,992,44,0.0742433089447487,1
168,993,44,0.0725706260081804,1
168,994,44,0.0718570835962967,1
168,995,44,0.0716870585773393,1
168,996,44,0.0735883671645687,1
168,997,44,0.0740525391635231,1
168,998,44,0.0748597362916115,1
169,985,44,0.102318320480015,1
169,986,44,0.111290363726911,1
169,989,44,0.130950713910977,1
169,990,44,0.114983162485687,1
169,991,44,0.0924929228645616,1
169,992,44,0.0806291718288832,1
169,993,44,0.0796291252441539,1
169,994,44,0.0798774847037562,1
169,995,44,0.0774850665440675,1
169,996,44,0.0747860637900227,1
169,997,44,0.0744025774203078,1
169,998,44,0.0785966299460689,1
170,984,44,0.106048206783698,1
170,985,44,0.113372754274056,1
170,986,44,0.116920461011354,1
170,987,44,0.114079196905147,1
170,989,44,0.121837911299718,1
170,990,44,0.108540039205117,1
170,991,44,0.0920511420375791,1
170,992,44,0.0850683429867245,1
170,993,44,0.0859838218814389,1
170,994,44,0.0884013405680157,1
170,995,44,0.0860032437390678,1
170,996,44,0.0798266655242316,1
170,997,44,0.0783205414809285,1
171,984,44,0.107986290964522,1
171,985,44,0.118030834376868,1
171,986,44,0.121461189651979,1
171,987,44,0.114641853088771,1
171,988,44,0.113604857604162,1
171,989,44,0.114953954599854,1
171,990,44,0.105975972724271,1
171,991,44,0.0941502913024462,1
171,992,44,0.0913189403157188,1
171,993,44,0.0920819616718594,1
171,994,44,0.0926116896614067,1
171,996,44,0.0836457410188524,1
172,984,44,0.107773609492045,1
172,985,44,0.113062847975912,1
172,986,44,0.116816246165541,1
172,987,44,0.113752572327414,1
172,988,44,0.11719307179705,1
172,989,44,0.123710982516307,1
172,990,44,0.116665897186763,1
172,991,44,0.0994022227201119,1
172,992,44,0.0951238451331343,1
173,985,44,0.104632548620963,1
173,986,44,0.110711462967543,1
173,987,44,0.114462573514215,1
173,988,44,0.125203230503089,1
173,989,44,0.138802100952806,1
173,990,44,0.132339394062074,1
173,991,44,0.106141873053655,1
173,992,44,0.0952684518970152,1
174,986,44,0.101287148086569,1
174,987,44,0.110924479498837,1
174,988,44,0.125072141629408,1
174,989,44,0.137976192522855,1
174,990,44,0.131854124911406,1
174,991,44,0.107890602787911,1
174,992,44,0.0954633810290715,1
175,987,44,0.104662033796851,1
175,988,44,0.113963000818191,1
175,989,44,0.117506802387209,1
175,990,44,0.112551432683772,1
175,991,44,0.102109347762029,1
175,992,44,0.096531814273709,1
176,988,44,0.106399914557691,1
176,989,44,0.104538235340876,1
176,990,44,0.10150951160348,1
176,991,44,0.0998911544102614,1
176,992,44,0.0996285029590546,1
176,993,44,0.0987551432683772,1
177,987,44,0.10153920474691,1
177,988,44,0.101304155209966,1
177,989,44,0.101350485756719,1
177,990,44,0.100992434972709,1
177,991,44,0.101003387929897,1
177,992,44,0.102138798276661,1
177,993,44,0.103463828806296,1
178,986,44,0.111652492985486,1
178,987,44,0.103944199165985,1
178,988,44,0.10247526665136,1
178,989,44,0.104256589520876,1
178,990,44,0.104671923808827,1
178,991,44,0.103295432866414,1
178,992,44,0.104485064972757,1
179,985,44,0.119276421305637,1
179,986,44,0.117233463715117,1
179,987,44,0.10985750202699,1
179,988,44,0.107606230282366,1
179,989,44,0.108041471685543,1
179,990,44,0.108438990087435,1
179,991,44,0.107622497965615,1
180,985,44,0.1109363105412,1
180,986,44,0.117763330349692,1
180,987,44,0.123050154099327,1
180,988,44,0.120765388026763,1
180,989,44,0.112092783378421,1
181,985,44,0.102070608030542,1
181,986,44,0.118603288142449,1
181,987,44,0.138168308316225,1
181,988,44,0.136916875188788,1
182,985,44,0.0931585807500067,1
182,986,44,0.106821152813071,1
182,987,44,0.125145727477855,1
183,986,44,0.0918387147476531,1
184,986,44,0.0785769712365177,1
163,992,45,0.0523716918834243,1
163,993,45,0.055560695049707,1
164,991,45,0.0519492000459192,1
164,992,45,0.0499075769137913,1
164,993,45,0.0519529607922953,1
164,994,45,0.0540985503645625,1
164,995,45,0.054747651722951,1
165,991,45,0.0531663589671352,1
165,992,45,0.049369772851381,1
165,993,45,0.0495246682316917,1
165,994,45,0.0515745580735957,1
165,995,45,0.0548683422195553,1
165,996,45,0.0585815506817823,1
166,991,45,0.0585590901872965,1
166,992,45,0.0530810287294681,1
166,993,45,0.0516221248718458,1
166,994,45,0.053710309625773,1
166,995,45,0.0580005298088658,1
166,996,45,0.0627928645134909,1
166,997,45,0.0653092313279347,1
167,990,45,0.0765130551393124,1
167,991,45,0.0678249164709923,1
167,992,45,0.0610576237850536,1
167,993,45,0.057543856195159,1
167,994,45,0.0580921164034075,1
167,995,45,0.0611677252676681,1
167,996,45,0.0654294885588275,1
167,997,45,0.0660676485137808,1
167,998,45,0.0649764890383544,1
168,989,45,0.0963286530931336,1
168,990,45,0.0882574212523972,1
168,991,45,0.0778757277939654,1
168,992,45,0.0707992682500299,1
168,993,45,0.0663020741481002,1
168,994,45,0.0652969901273649,1
168,995,45,0.065059392988037,1
168,996,45,0.066345007891675,1
168,997,45,0.0664037125071495,1
168,998,45,0.0663231539691853,1
169,985,45,0.100972481642474,1
169,986,45,0.107263176268852,1
169,989,45,0.105347101986173,1
169,990,45,0.0957536575020455,1
169,991,45,0.083502318514583,1
169,992,45,0.076059142872407,1
169,993,45,0.0740877318930518,1
169,994,45,0.0755079942260816,1
169,995,45,0.07274929901074,1
169,996,45,0.0674157634405263,1
169,997,45,0.0658108779224985,1
170,984,45,0.106064763310755,1
170,985,45,0.115737206576285,1
170,986,45,0.119316801669952,1
170,987,45,0.106055035051312,1
170,989,45,0.101430946087789,1
170,990,45,0.0935658331882182,1
170,991,45,0.0830075232951376,1
170,992,45,0.0776365189061906,1
170,993,45,0.079467234066821,1
170,994,45,0.0848802883372912,1
170,995,45,0.0829217828992635,1
170,996,45,0.0731624265319998,1
171,984,45,0.104905748648026,1
171,985,45,0.116696329770341,1
171,986,45,0.122713766600893,1
171,987,45,0.110564164179375,1
171,988,45,0.104742817632986,1
171,989,45,0.102658913544288,1
171,990,45,0.0953580974611692,1
171,991,45,0.0855929931021326,1
171,992,45,0.0816402522470662,1
172,984,45,0.105032562633353,1
172,985,45,0.109363463578321,1
172,986,45,0.119270956380795,1
172,987,45,0.114762913305449,1
172,988,45,0.111273194850982,1
172,989,45,0.109722935473865,1
172,990,45,0.101774057870065,1
172,991,45,0.0900757623443063,1
172,992,45,0.0869831925716582,1
173,985,45,0.100763173865671,1
173,986,45,0.111547423162001,1
173,987,45,0.114161401852815,1
173,988,45,0.116364956600409,1
173,989,45,0.119481454194086,1
173,990,45,0.111469088721356,1
173,991,45,0.0953918113104026,1
173,992,45,0.0883276969508076,1
174,986,45,0.0988138940988609,1
174,987,45,0.106330199216267,1
174,988,45,0.114171857998653,1
174,989,45,0.119962702638951,1
174,990,45,0.112701585248761,1
174,991,45,0.0976173297411331,1
175,987,45,0.100970667703362,1
175,988,45,0.107254476293364,1
175,989,45,0.108548196154246,1
175,990,45,0.102853663593184,1
175,991,45,0.0960841121486689,1
175,992,45,0.091300650725816,1
176,988,45,0.101780701277642,1
176,989,45,0.0997271720037608,1
176,990,45,0.09626291801938,1
176,991,45,0.095616803305963,1
176,992,45,0.0959078943184747,1
176,993,45,0.0957307001962104,1
177,987,45,0.100882050423163,1
177,988,45,0.0990821722274414,1
177,989,45,0.0989826944200737,1
177,990,45,0.0973055170738579,1
177,991,45,0.0968961618527264,1
177,992,45,0.0987391759826882,1
177,993,45,0.100572398307569,1
178,986,45,0.107466198804399,1
178,987,45,0.102195931581821,1
178,988,45,0.101689553725688,1
178,989,45,0.104054167780448,1
178,990,45,0.101977057298108,1
178,991,45,0.0990346978592099,1
179,985,45,0.109186067265391,1
179,986,45,0.108321072491385,1
179,987,45,0.105754175341224,1
179,988,45,0.106669971964127,1
179,989,45,0.108192710303248,1
179,990,45,0.106043284885215,1
180,985,45,0.105781754147982,1
180,986,45,0.110415444279673,1
180,987,45,0.11360845082113,1
180,988,45,0.11251807700086,1
180,989,45,0.108360008636661,1
181,985,45,0.100336008535358,1
181,986,45,0.111072575495915,1
181,987,45,0.121038946220148,1
181,988,45,0.120070372056705,1
182,985,45,0.0937203357409505,1
182,986,45,0.103495855807692,1
182,987,45,0.114765096964635,1
183,986,45,0.0918980548195045,1
166,991,46,0.0538406359518018,1
166,992,46,0.048405239612807,1
166,995,46,0.0510885494827801,1
166,996,46,0.055387227012562,1
167,990,46,0.0710645424030104,1
167,991,46,0.0653487624914548,1
167,992,46,0.0589393472832414,1
167,993,46,0.0527733349748905,1
167,994,46,0.0519507886868615,1
167,995,46,0.0548851067141535,1
167,996,46,0.0589182270240233,1
167,997,46,0.0588639706031872,1
168,989,46,0.0813897553432869,1
168,990,46,0.0777170370060216,1
168,991,46,0.075453945772787,1
168,992,46,0.069063819554051,1
168,993,46,0.0605398539291446,1
168,994,46,0.0585859526614115,1
168,995,46,0.0586619705747188,1
168,996,46,0.0597659547152065,1
168,997,46,0.059371515388304,1
169,986,46,0.103026045577612,1
169,989,46,0.0863115845037747,1
169,990,46,0.0813781033840848,1
169,991,46,0.0772047898437156,1
169,992,46,0.0711275045762102,1
169,993,46,0.0668039691483387,1
169,994,46,0.0692133424395387,1
169,995,46,0.0666776924124937,1
169,996,46,0.0612179725364535,1
170,985,46,0.113659691712614,1
170,986,46,0.116643609998562,1
170,987,46,0.100020741296142,1
170,989,46,0.086394066741498,1
170,990,46,0.0816493161657514,1
170,991,46,0.0751394006430911,1
170,992,46,0.0698820274080885,1
170,993,46,0.070882380167254,1
171,984,46,0.102971950909308,1
171,985,46,0.112320634927677,1
171,986,46,0.119977248813106,1
171,987,46,0.109164184458521,1
171,988,46,0.0976799857398968,1
171,990,46,0.0865295287104275,1
171,991,46,0.0786835603784307,1
171,992,46,0.0729186596889397,1
172,985,46,0.106803244496994,1
172,986,46,0.122458763733714,1
172,987,46,0.121231165997288,1
172,988,46,0.108445113576158,1
172,989,46,0.0981634178439478,1
172,990,46,0.0905585358844758,1
172,991,46,0.0834665365436867,1
173,985,46,0.0980030864231764,1
173,986,46,0.112405635883404,1
173,987,46,0.115853079158177,1
173,988,46,0.109191093147645,1
173,989,46,0.103624194888324,1
173,990,46,0.0959416023908318,1
173,991,46,0.0872770160465906,1
174,986,46,0.098710765305764,1
174,987,46,0.103386649740882,1
174,988,46,0.104232765683618,1
174,989,46,0.104605674593095,1
174,990,46,0.0978641525516785,1
174,991,46,0.0888163802352825,1
175,988,46,0.100278493956371,1
175,989,46,0.100076788548586,1
175,990,46,0.0952035833546847,1
175,991,46,0.0900968132810105,1
176,988,46,0.097795488601715,1
176,989,46,0.0949385922686356,1
176,990,46,0.0917917429676469,1
176,991,46,0.0916257328776164,1
176,992,46,0.0920828975257963,1
177,987,46,0.101461216918834,1
177,988,46,0.0980272337654991,1
177,989,46,0.0956333598330196,1
177,990,46,0.0927813796215471,1
177,991,46,0.0934021049642684,1
177,992,46,0.0957106659897092,1
177,993,46,0.0975364650287328,1
178,986,46,0.103656244997225,1
178,987,46,0.101673655762513,1
178,988,46,0.101706006268974,1
178,989,46,0.10167424500388,1
178,990,46,0.0969965004146411,1
178,991,46,0.095325440780272,1
179,985,46,0.1009841278248,1
179,986,46,0.100885262366305,1
179,987,46,0.102122160873338,1
179,988,46,0.105739259446995,1
179,989,46,0.107005342732357,1
179,990,46,0.101549337387684,1
180,985,46,0.100628434006261,1
180,986,46,0.102892368663414,1
180,987,46,0.104994204175692,1
180,988,46,0.106745880116787,1
180,989,46,0.107296878564333,1
181,985,46,0.0985805660710107,1
181,986,46,0.103588147181125,1
181,987,46,0.10711831532242,1
181,988,46,0.107547202161827,1
182,986,46,0.0989164336505901,1
182,987,46,0.105432738398277,1
183,986,46,0.0885381312184606,1
166,991,47,0.0496873046260485,1
167,990,47,0.0645094863700846,1
167,991,47,0.0598266870142109,1
167,992,47,0.0529868309869049,1
167,995,47,0.0483551685387443,1
167,996,47,0.0513922860771924,1
168,989,47,0.0710121981281812,1
168,990,47,0.0681880855672744,1
168,991,47,0.0689188950619817,1
168,992,47,0.0623967961075131,1
168,993,47,0.0542767785476582,1
168,994,47,0.0519013848419946,1
168,995,47,0.0524005878179454,1
168,996,47,0.0528916338447671,1
169,988,47,0.0779471299832258,1
169,989,47,0.073079551466698,1
169,990,47,0.0692602275664027,1
169,991,47,0.0680518610506927,1
169,992,47,0.0626240006466404,1
169,993,47,0.0584438068467721,1
170,986,47,0.106594502854054,1
170,989,47,0.0769319884211067,1
170,990,47,0.0724745218964865,1
170,991,47,0.0677715323584554,1
170,992,47,0.0627294401901988,1
170,993,47,0.0622746787224988,1
171,985,47,0.10704676293438,1
171,986,47,0.112666415626737,1
171,987,47,0.108044695182437,1
171,989,47,0.0839424413781094,1
171,990,47,0.0785634129081848,1
171,991,47,0.0717923074839847,1
171,992,47,0.0655773303733544,1
172,985,47,0.10630723035668,1
172,986,47,0.123090557571146,1
172,987,47,0.126584342946425,1
172,988,47,0.107762587212344,1
172,989,47,0.0923708516945565,1
172,990,47,0.0838995654032962,1
172,991,47,0.0774573259847771,1
172,992,47,0.0722480567975069,1
173,986,47,0.112245928365257,1
173,987,47,0.115749603752511,1
173,988,47,0.104372300350236,1
173,989,47,0.0951454102118163,1
173,990,47,0.0878978684805873,1
173,991,47,0.080574684333001,1
173,992,47,0.0749566896041,1
174,987,47,0.101094292853052,1
174,988,47,0.098754946854588,1
174,989,47,0.0971196171992299,1
174,990,47,0.0913875580506731,1
174,991,47,0.0828618593629206,1
174,992,47,0.0760703962271545,1
175,988,47,0.0952753148258859,1
175,989,47,0.0945647359514691,1
175,990,47,0.0906684467301772,1
175,991,47,0.0845761820228051,1
175,992,47,0.0798881314865076,1
176,987,47,0.0974818966565844,1
176,988,47,0.0951957036956109,1
176,989,47,0.0919507052687699,1
176,990,47,0.0889459728980397,1
176,991,47,0.0875080968696171,1
176,992,47,0.0868284531670037,1
176,993,47,0.0864362090530397,1
177,986,47,0.102873547600905,1
177,987,47,0.101446936480982,1
177,988,47,0.0979508056939849,1
177,989,47,0.0930042283960545,1
177,990,47,0.0891567999932711,1
177,991,47,0.0899174123920556,1
177,992,47,0.0914864870548062,1
178,987,47,0.102363137485216,1
178,988,47,0.102568112604903,1
178,989,47,0.0986394671002744,1
178,990,47,0.0927987969031507,1
178,991,47,0.093229486127918,1
179,986,47,0.0962529182467578,1
179,987,47,0.100876100240725,1
179,988,47,0.104838656008376,1
179,989,47,0.104307495353543,1
179,990,47,0.0983145524778824,1
180,985,47,0.0940969360742901,1
180,986,47,0.0967732068206699,1
180,987,47,0.101006033739175,1
180,988,47,0.104606679769546,1
180,989,47,0.107539091427707,1
181,985,47,0.0943583108358668,1
181,986,47,0.0976289643697068,1
181,987,47,0.10026126731168,1
181,988,47,0.102401484389124,1
182,986,47,0.0932663888127882,1
182,987,47,0.0983319755363622,1
183,986,47,0.0833259389318565,1
167,990,48,0.0573987237355481,1
167,991,48,0.0532770092529843,1
167,992,48,0.0480191738678894,1
168,989,48,0.0629933047853978,1
168,990,48,0.0603022452360644,1
168,991,48,0.0605138984245858,1
168,992,48,0.0553633858446754,1
168,993,48,0.0487381407664815,1
169,989,48,0.0640566081640108,1
169,990,48,0.0609767417420249,1
169,991,48,0.059966267895838,1
169,992,48,0.0551102084703608,1
169,993,48,0.0509649589943466,1
169,994,48,0.0516392013177563,1
170,988,48,0.0759659907444277,1
170,989,48,0.0689856641965668,1
170,990,48,0.0653526272216017,1
170,991,48,0.0617221494027727,1
170,992,48,0.0568357267162313,1
170,993,48,0.0543266503194936,1
171,986,48,0.103949294370753,1
171,987,48,0.102922061806844,1
171,988,48,0.0878532305585472,1
171,989,48,0.0768660396029354,1
171,990,48,0.0716851926463417,1
171,991,48,0.0656767388582083,1
171,992,48,0.0592339159751977,1
171,993,48,0.0552641275586016,1
172,986,48,0.117185943131877,1
172,987,48,0.122274758674465,1
172,988,48,0.103416296669303,1
172,989,48,0.0866616574218162,1
172,990,48,0.077915542024417,1
172,991,48,0.0703706355931733,1
172,992,48,0.0638448047767094,1
172,993,48,0.0584024964053966,1
173,987,48,0.111493952396322,1
173,988,48,0.0994790667267092,1
173,989,48,0.0891909066700829,1
173,990,48,0.0816162608803996,1
173,991,48,0.0729656950145836,1
173,992,48,0.0663234543667453,1
174,986,48,0.098329976737213,1
174,987,48,0.0979491419536526,1
174,988,48,0.09510850175007,1
174,989,48,0.0931182466007012,1
174,990,48,0.0871652046086347,1
174,991,48,0.076824018605793,1
174,992,48,0.0695634211344565,1
175,987,48,0.0933878476339209,1
175,988,48,0.0920592758792036,1
175,989,48,0.0914339290355593,1
175,990,48,0.0876974859774419,1
175,991,48,0.0801540122114843,1
175,992,48,0.0748097143209961,1
175,993,48,0.0729980859591777,1
176,987,48,0.0977397648543358,1
176,988,48,0.0941364036921725,1
176,989,48,0.09023197485238,1
176,990,48,0.0872503268787603,1
176,991,48,0.0845774356049304,1
176,992,48,0.0825910509625847,1
176,993,48,0.0823232985297342,1
176,994,48,0.0870842070280828,1
177,987,48,0.103779985684439,1
177,988,48,0.099107555821261,1
177,989,48,0.090765937292148,1
177,990,48,0.086242238882425,1
177,991,48,0.0875230300944746,1
177,992,48,0.0884071694360549,1
178,986,48,0.0995074080811195,1
178,987,48,0.106347541398481,1
178,988,48,0.104690663995069,1
178,989,48,0.0945589186371822,1
178,990,48,0.0879424024188566,1
178,991,48,0.0915294496827617,1
179,986,48,0.0933056253556245,1
179,987,48,0.102489859040525,1
179,988,48,0.105264538872184,1
179,989,48,0.0994888065399044,1
179,990,48,0.0954390661573403,1
180,986,48,0.0909872089794654,1
180,987,48,0.0991793970531092,1
180,988,48,0.104612121586883,1
180,989,48,0.105292002141419,1
181,986,48,0.091854150560736,1
181,987,48,0.0958887786352819,1
181,988,48,0.0999995286069058,1
182,986,48,0.0885333826262622,1
182,987,48,0.0927881096822663,1
183,986,48,0.0803252041594248,1
168,990,49,0.0544853353305612,1
168,991,49,0.053136706261838,1
168,992,49,0.0484295198232812,1
169,989,49,0.0580934797461798,1
169,990,49,0.055871109712953,1
169,991,49,0.0550649928607054,1
169,992,49,0.0502261600799187,1
170,989,49,0.0621882566552386,1
170,990,49,0.0593229029754702,1
170,991,49,0.0573864883118544,1
170,992,49,0.0530964241044178,1
170,993,49,0.0493018252340605,1
171,988,49,0.0807933622029253,1
171,989,49,0.0702061679290759,1
171,990,49,0.0647662511844907,1
171,991,49,0.0596156346208095,1
171,992,49,0.0542854669693935,1
171,993,49,0.0506859069917393,1
171,994,49,0.0507921899592162,1
172,987,49,0.106466267757193,1
172,988,49,0.0938186292887066,1
172,989,49,0.0804956855515983,1
172,990,49,0.071651842740306,1
172,991,49,0.0634006900917608,1
172,992,49,0.0567621293140325,1
172,993,49,0.052325280460405,1
172,995,49,0.0584623217348449,1
173,986,49,0.100452458804865,1
173,987,49,0.100652627563593,1
173,988,49,0.0925006465479791,1
173,989,49,0.0836849948923172,1
173,990,49,0.0754366093674496,1
173,991,49,0.0663741060168615,1
173,992,49,0.0593808161589116,1
173,993,49,0.0542998976060255,1
173,994,49,0.0545753043997798,1
173,995,49,0.060352873778676,1
174,986,49,0.0948916493730102,1
174,987,49,0.0925502930216445,1
174,988,49,0.0896405498255106,1
174,989,49,0.0868957364435665,1
174,990,49,0.0803557349498974,1
174,991,49,0.0710116608786989,1
174,992,49,0.0644780139487989,1
174,1001,49,0.0949674477650237,1
175,986,49,0.096934017722162,1
175,987,49,0.091831008394864,1
175,988,49,0.0880538499136149,1
175,989,49,0.0861421660568134,1
175,990,49,0.0819432840625877,1
175,991,49,0.0754027164350555,1
175,992,49,0.070716653144155,1
175,993,49,0.0694200737295771,1
175,994,49,0.0725371432339932,1
175,995,49,0.0780383410808175,1
176,986,49,0.0990881455173844,1
176,987,49,0.0975412136209312,1
176,988,49,0.092907575481126,1
176,989,49,0.0880442314148189,1
176,990,49,0.0842490317493416,1
176,991,49,0.0816548735206113,1
176,992,49,0.0793607315780503,1
176,993,49,0.0792476145660836,1
176,994,49,0.0821012296335076,1
176,995,49,0.0852680784797406,1
176,996,49,0.0873954189002381,1
177,987,49,0.104753181348805,1
177,988,49,0.100228835928953,1
177,989,49,0.0901137857431503,1
177,990,49,0.0846718470919113,1
177,991,49,0.0861615474763093,1
177,992,49,0.0868968282731595,1
178,986,49,0.0970010757005548,1
178,987,49,0.107644461648752,1
178,988,49,0.105103410242503,1
178,989,49,0.0917515763477498,1
178,990,49,0.0858651937296215,1
178,991,49,0.0919903230854323,1
179,986,49,0.0910708523692956,1
179,987,49,0.102903876200712,1
179,988,49,0.104342942265622,1
179,989,49,0.0943847400442703,1
179,990,49,0.0944475462418139,1
180,986,49,0.088134108054019,1
180,987,49,0.0988796118419861,1
180,988,49,0.104592237579162,1
180,989,49,0.10105076986811,1
181,985,49,0.0825993985486269,1
181,986,49,0.0879723497448377,1
181,987,49,0.0940726558638158,1
181,988,49,0.0989191603361347,1
182,985,49,0.0777793117309591,1
182,986,49,0.0843980058315947,1
182,987,49,0.0892123735418702,1
183,986,49,0.0776480899891265,1
183,987,49,0.0849603327332777,1
184,986,49,0.0679277333127769,1
185,985,49,0.051691412724434,1
168,991,50,0.0512700704852835,1
169,990,50,0.056305057095871,1
169,991,50,0.0564731699688215,1
169,992,50,0.049995033041883,1
170,990,50,0.0577517370835519,1
170,991,50,0.0575877893383083,1
170,992,50,0.0524218582759435,1
171,989,50,0.0673659089993194,1
171,990,50,0.0614307926539579,1
171,991,50,0.0566581282126364,1
171,992,50,0.0517643631165036,1
171,993,50,0.048183081175,1
171,995,50,0.0521636723500036,1
172,988,50,0.0875167795144762,1
172,989,50,0.079174404214587,1
172,990,50,0.0697049141620905,1
172,991,50,0.060281864416994,1
172,992,50,0.0532006967189931,1
172,993,50,0.0494909486055823,1
172,994,50,0.0496200271263618,1
172,995,50,0.0548890349899381,1
172,996,50,0.0569434596796228,1
172,1001,50,0.0582558215198527,1
173,987,50,0.0931003209539961,1
173,988,50,0.0896001867918243,1
173,989,50,0.0833977223949431,1
173,990,50,0.0737673174571836,1
173,991,50,0.0636326432230865,1
173,992,50,0.0559796283315014,1
173,993,50,0.0516037775131814,1
173,994,50,0.0523100468379876,1
173,995,50,0.0568232833249961,1
173,996,50,0.0579548982641273,1
173,999,50,0.0598940973820491,1
173,1001,50,0.0696461922159875,1
173,1002,50,0.0761190606318738,1
174,987,50,0.0895937744592936,1
174,988,50,0.0870092462831117,1
174,989,50,0.0837770956288365,1
174,990,50,0.0767800854626437,1
174,991,50,0.0686480751078936,1
174,992,50,0.0627803749072465,1
174,993,50,0.0598821508021632,1
174,994,50,0.0618295530842233,1
174,995,50,0.0662460326725327,1
174,1000,50,0.0861786008147152,1
174,1001,50,0.091462507241892,1
174,1002,50,0.094374058600262,1
175,987,50,0.091764169937765,1
175,988,50,0.0867088429462401,1
175,989,50,0.083699263776417,1
175,990,50,0.0796242726681847,1
175,991,50,0.0742283641661389,1
175,992,50,0.0702529144109121,1
175,993,50,0.0688985604579205,1
175,994,50,0.0708917906985084,1
175,995,50,0.0743550683908193,1
175,1001,50,0.117068441470909,1
176,986,50,0.100116856961589,1
176,987,50,0.0974393788480927,1
176,988,50,0.0939117698629337,1
176,989,50,0.08827323256243,1
176,990,50,0.0845409141938864,1
176,991,50,0.081664104968705,1
176,992,50,0.0794651370607772,1
176,993,50,0.0788476063305689,1
176,994,50,0.0795192259522048,1
176,995,50,0.0819899901062908,1
176,996,50,0.0844734287266582,1
177,986,50,0.098105602867401,1
177,987,50,0.105290916088702,1
177,988,50,0.103736208516946,1
177,989,50,0.0924096087566721,1
177,990,50,0.0868768171741629,1
177,991,50,0.0874445512319258,1
177,992,50,0.0880270914232707,1
177,993,50,0.0874912746062574,1
178,986,50,0.095046134595114,1
178,987,50,0.107565595735501,1
178,988,50,0.107255828082384,1
178,989,50,0.0930350364765825,1
178,990,50,0.0889594503501064,1
178,991,50,0.0955490116642986,1
179,986,50,0.0899979478225151,1
179,987,50,0.103462869844854,1
179,988,50,0.105784781231087,1
179,989,50,0.0943460407509163,1
179,990,50,0.0971177570451084,1
180,985,50,0.0783735038815062,1
180,986,50,0.0867001949626379,1
180,987,50,0.0992719079478355,1
180,988,50,0.104908429118561,1
180,989,50,0.0989807071746768,1
181,985,50,0.0783224131888024,1
181,986,50,0.084713238409553,1
181,987,50,0.0927016240693684,1
181,988,50,0.0974086227594501,1
182,985,50,0.0731518317411338,1
182,986,50,0.0800569606921012,1
182,987,50,0.0860781062771444,1
182,988,50,0.0902604490749419,1
183,985,50,0.0648418127245818,1
183,986,50,0.0740217426367474,1
183,987,50,0.0833479603837547,1
184,985,50,0.0552067400708901,1
184,986,50,0.0649547159921309,1
169,991,51,0.0577631464139556,1
169,992,51,0.0496811406991924,1
170,991,51,0.0574368511181629,1
170,992,51,0.0510818829676987,1
171,990,51,0.0602305888642532,1
171,991,51,0.0553446572121849,1
171,992,51,0.049730267254004,1
171,995,51,0.050623788242458,1
171,996,51,0.0572282538971269,1
171,1001,51,0.0486244171825186,1
172,990,51,0.0688388448891191,1
172,991,51,0.0589607563862673,1
172,992,51,0.0513661457125966,1
172,993,51,0.0481259247623347,1
172,995,51,0.0516650701691728,1
172,996,51,0.0548171648737092,1
172,997,51,0.0535520752110455,1
172,998,51,0.0493124835705642,1
172,999,51,0.0491270631766571,1
172,1000,51,0.0510854530771617,1
172,1001,51,0.0555401640318566,1
172,1002,51,0.0613039671148783,1
173,988,51,0.0886439289283405,1
173,989,51,0.0843972837220755,1
173,990,51,0.0730181086119266,1
173,991,51,0.0634154211259529,1
173,992,51,0.0553227224134291,1
173,993,51,0.0512609083597036,1
173,994,51,0.0516887611382794,1
173,995,51,0.0544976054155118,1
173,996,51,0.0551295725592282,1
173,997,51,0.0544759652374398,1
173,998,51,0.0548728077448222,1
173,999,51,0.0584669432357679,1
173,1000,51,0.0628612742809037,1
173,1001,51,0.0679783271941315,1
173,1002,51,0.0720996835103738,1
173,1003,51,0.0773225456872338,1
174,988,51,0.0855992032439979,1
174,989,51,0.0814078947344097,1
174,990,51,0.0739361293321488,1
174,991,51,0.0686590569494619,1
174,992,51,0.0632933384021955,1
174,993,51,0.0605249669192964,1
174,994,51,0.0618936533020254,1
174,995,51,0.0639282286452458,1
174,996,51,0.0644168830453399,1
174,999,51,0.078047150816952,1
174,1000,51,0.0842146766668552,1
174,1001,51,0.0879891315700644,1
174,1002,51,0.0907925860218453,1
174,1003,51,0.094838779402451,1
175,987,51,0.0933555953343545,1
175,988,51,0.0865621680606962,1
175,989,51,0.0821295305497848,1
175,990,51,0.0781265193184284,1
175,991,51,0.0744941582379733,1
175,992,51,0.0708142534667727,1
175,993,51,0.068913459021521,1
175,994,51,0.0703355064092823,1
175,995,51,0.0717663866406827,1
175,996,51,0.0733768352904465,1
175,997,51,0.0773087100688456,1
175,1000,51,0.107973558729479,1
175,1001,51,0.112399500840928,1
176,986,51,0.102590284255582,1
176,987,51,0.0968511599874887,1
176,988,51,0.0933092301263444,1
176,989,51,0.0873708094078231,1
176,990,51,0.0843281171838866,1
176,991,51,0.0820170316635666,1
176,992,51,0.0799915375696599,1
176,993,51,0.0788304085702592,1
176,994,51,0.0786586967034649,1
176,995,51,0.079680487450037,1
176,996,51,0.081604025456706,1
177,986,51,0.0973004334228426,1
177,987,51,0.102451673889148,1
177,988,51,0.101917844317532,1
177,989,51,0.0915637354427342,1
177,990,51,0.0877659477367401,1
177,991,51,0.0882065211966064,1
177,992,51,0.0890604128146456,1
177,993,51,0.0889646148773879,1
177,994,51,0.085800590923594,1
178,986,51,0.0921587594634474,1
178,987,51,0.102546310674299,1
178,988,51,0.103433199808929,1
178,989,51,0.0927491966444945,1
178,990,51,0.0919995198722691,1
178,991,51,0.0983399591792067,1
178,992,51,0.102577055209189,1
179,986,51,0.0879795881706583,1
179,987,51,0.099780908505743,1
179,988,51,0.102322445169589,1
179,989,51,0.0941273108891065,1
179,990,51,0.0989302634921022,1
179,991,51,0.11235469538948,1
180,985,51,0.0759466266555603,1
180,986,51,0.0852917463413426,1
180,987,51,0.0971004379703995,1
180,988,51,0.101612963901641,1
180,989,51,0.0966067576880516,1
180,990,51,0.106000270265374,1
181,985,51,0.0739905937205264,1
181,986,51,0.0815865330757124,1
181,987,51,0.0903191248060356,1
181,988,51,0.094911591149493,1
181,989,51,0.0920190226061642,1
182,985,51,0.068520949171254,1
182,986,51,0.0761322319095044,1
182,987,51,0.0838523567713677,1
182,988,51,0.0892128587994672,1
183,985,51,0.060739069503307,1
183,986,51,0.0701996458358983,1
183,987,51,0.0808916961888146,1
184,986,51,0.062194882732187,1
170,991,52,0.057171299675127,1
170,992,52,0.0492551538516143,1
170,996,52,0.0490155636900134,1
171,990,52,0.0624287306788911,1
171,991,52,0.0559704257677884,1
171,992,52,0.0486911516558468,1
171,995,52,0.0484695102484556,1
171,996,52,0.0548058248658193,1
171,997,52,0.0538189148974637,1
171,1002,52,0.052614314905006,1
172,990,52,0.070996109528093,1
172,991,52,0.0601811445812532,1
172,992,52,0.0517968233836116,1
172,993,52,0.0479756191101281,1
172,995,52,0.0491273866817217,1
172,996,52,0.0528669261454575,1
172,997,52,0.051932545311968,1
172,998,52,0.04823417764458,1
172,1000,52,0.0500491046026822,1
172,1001,52,0.0548723109334729,1
172,1002,52,0.0601516882897452,1
172,1003,52,0.0642712653281321,1
173,989,52,0.0865625782189031,1
173,990,52,0.074504065580577,1
173,991,52,0.0651546421220601,1
173,992,52,0.0571285045765799,1
173,993,52,0.0525039419092123,1
173,994,52,0.051732330338231,1
173,995,52,0.0528903571551371,1
173,996,52,0.0536958963197694,1
173,997,52,0.0541475209437179,1
173,998,52,0.0553840670613059,1
173,999,52,0.0583180095916479,1
173,1000,52,0.0627532062586953,1
173,1001,52,0.0673055637510172,1
173,1002,52,0.0700942236229683,1
173,1003,52,0.0741884170675357,1
173,1004,52,0.0930795184229664,1
174,988,52,0.0872470340593526,1
174,989,52,0.0812446113299238,1
174,990,52,0.0737324828939765,1
174,991,52,0.0706080305418359,1
174,992,52,0.0659035505697571,1
174,993,52,0.062557370157083,1
174,994,52,0.0630814310311234,1
174,995,52,0.0633091901503615,1
174,996,52,0.0627708546153451,1
174,997,52,0.0651797773102051,1
174,998,52,0.0720950793400792,1
174,999,52,0.0775161056996416,1
174,1000,52,0.0814910470897669,1
175,987,52,0.0960913505744895,1
175,988,52,0.087577898864183,1
175,989,52,0.0814197546611534,1
175,990,52,0.0773192182065693,1
175,991,52,0.0759082970822801,1
175,992,52,0.0728387654917332,1
175,993,52,0.0704761329054933,1
175,994,52,0.0715206729903588,1
175,995,52,0.0711731303440726,1
175,996,52,0.071912472284859,1
175,997,52,0.0779402035087174,1
175,998,52,0.090623577733091,1
176,986,52,0.103488611604996,1
176,987,52,0.0966617073340262,1
176,988,52,0.0918139839408389,1
176,989,52,0.086323583075546,1
176,990,52,0.0836676238257228,1
176,991,52,0.0827767659771757,1
176,992,52,0.0810597397392512,1
176,993,52,0.0796915674984999,1
176,994,52,0.0791587488802103,1
176,995,52,0.0781864139703906,1
176,996,52,0.080646860623666,1
176,997,52,0.087939074938192,1
177,986,52,0.0964050465033909,1
177,987,52,0.0990480886581343,1
177,988,52,0.0977712834906307,1
177,989,52,0.0908819369653154,1
177,990,52,0.0886640209036033,1
177,991,52,0.0890861776822914,1
177,992,52,0.0897005715687482,1
177,993,52,0.089489565390356,1
177,994,52,0.0861897559625681,1
177,995,52,0.0861351355985343,1
178,986,52,0.0902659313304118,1
178,987,52,0.0983003875775534,1
178,988,52,0.0998689134370694,1
178,989,52,0.0944177202302321,1
178,990,52,0.0955858739110357,1
178,991,52,0.0998174761317963,1
178,992,52,0.10359383162726,1
178,993,52,0.104541944095367,1
178,994,52,0.0973229632398422,1
179,986,52,0.0881937023084212,1
179,987,52,0.098782259925043,1
179,988,52,0.102142946073739,1
179,989,52,0.0974899496219427,1
179,990,52,0.101830185998775,1
179,991,52,0.110249855901601,1
180,985,52,0.0751811559039305,1
180,986,52,0.0864459199818541,1
180,987,52,0.0979517299941695,1
180,988,52,0.102108885611937,1
180,989,52,0.0971444462129388,1
180,990,52,0.103257224607533,1
181,985,52,0.0710185642457026,1
181,986,52,0.0810072972575274,1
181,987,52,0.0912182609181111,1
181,988,52,0.0961645724797384,1
181,989,52,0.0926863846700747,1
182,985,52,0.0648222117837921,1
182,986,52,0.074218300847879,1
182,987,52,0.0844396224474064,1
182,988,52,0.0916199848858434,1
183,985,52,0.057351682633028,1
183,986,52,0.0675664185937401,1
183,987,52,0.0795322932460646,1
184,986,52,0.0588153928516103,1
171,991,53,0.0544172895063461,1
171,996,53,0.0484385779650903,1
171,997,53,0.0479913697629614,1
171,1002,53,0.0512088182674252,1
171,1003,53,0.0569415648642443,1
172,990,53,0.070022486374891,1
172,991,53,0.0597220851176948,1
172,992,53,0.0521750990110358,1
172,993,53,0.0480133190039076,1
172,996,53,0.0499924218938615,1
172,997,53,0.0499755245311118,1
172,998,53,0.0491636365795865,1
172,999,53,0.0488971377288613,1
172,1000,53,0.0513274175348618,1
172,1001,53,0.0561354249044921,1
172,1002,53,0.0597959251486922,1
172,1003,53,0.0635468277278224,1
172,1004,53,0.0824641041091059,1
173,989,53,0.0840004989834547,1
173,990,53,0.072816437865399,1
173,991,53,0.0646063183681739,1
173,992,53,0.0579207800335632,1
173,993,53,0.0535655006712268,1
173,994,53,0.0519733242807373,1
173,995,53,0.0526502470746823,1
173,996,53,0.053498968388564,1
173,997,53,0.0555649179461754,1
173,998,53,0.0587476474249551,1
173,999,53,0.0609017578895491,1
173,1000,53,0.0645271347267344,1
173,1004,53,0.11714655639026,1
174,989,53,0.0801227073196071,1
174,990,53,0.0728376967696448,1
174,991,53,0.0696717895542248,1
174,992,53,0.0654669804850653,1
174,993,53,0.0622482552909715,1
174,994,53,0.0625386184170879,1
174,995,53,0.0632205497626582,1
174,996,53,0.0628844222236518,1
174,997,53,0.0673967170798473,1
174,998,53,0.0748571829123516,1
174,999,53,0.0776435898026028,1
175,988,53,0.0869682709005531,1
175,989,53,0.0791334981545423,1
175,990,53,0.0750521351519124,1
175,991,53,0.074209132945423,1
175,992,53,0.0715573388233067,1
175,993,53,0.0696752961180501,1
175,994,53,0.071208386619239,1
175,995,53,0.0715843110580686,1
175,996,53,0.0723746512615403,1
175,997,53,0.0803584789660704,1
175,998,53,0.0915549661447328,1
176,987,53,0.0941796205026788,1
176,988,53,0.087597811756285,1
176,989,53,0.0825050101691506,1
176,990,53,0.0802835124442231,1
176,991,53,0.0803304842242293,1
176,992,53,0.078947170791079,1
176,993,53,0.0783280398661761,1
176,994,53,0.0791766629731631,1
176,995,53,0.0785799636583653,1
176,996,53,0.0820994676862807,1
176,997,53,0.0909806117868978,1
177,986,53,0.0912222123014002,1
177,987,53,0.0919157609449158,1
177,988,53,0.0903116148670357,1
177,989,53,0.087146620398048,1
177,990,53,0.08641443022994,1
177,991,53,0.0872375946437174,1
177,992,53,0.0878013311031818,1
177,993,53,0.0877463583497027,1
177,994,53,0.0861597277603208,1
177,995,53,0.0867327996516497,1
178,986,53,0.0854704366745306,1
178,987,53,0.0915540187370436,1
178,988,53,0.0943742896753081,1
178,989,53,0.0932960357412093,1
178,990,53,0.0949104473280145,1
178,991,53,0.0974113956600039,1
178,992,53,0.100673066151425,1
178,993,53,0.10093761241801,1
179,986,53,0.0856079840957516,1
179,987,53,0.0949936054602479,1
179,988,53,0.09917679745884,1
179,989,53,0.097279220733606,1
179,990,53,0.0999777844450631,1
179,991,53,0.104369539003434,1
180,985,53,0.0739664059400706,1
180,986,53,0.0844775014243466,1
180,987,53,0.0955470590801586,1
180,988,53,0.0994822786698507,1
180,989,53,0.0950194049891506,1
180,990,53,0.0976778598494722,1
181,985,53,0.0686342625970099,1
181,986,53,0.078841598379369,1
181,987,53,0.0898380496674553,1
181,988,53,0.0954905727851272,1
181,989,53,0.0921591869522828,1
182,985,53,0.0620309523175718,1
182,986,53,0.0715991460760314,1
182,987,53,0.0827176165422374,1
182,988,53,0.0915700149071134,1
182,989,53,0.0923692746073665,1
183,985,53,0.0551638640960769,1
183,986,53,0.0647131270313807,1
183,987,53,0.075587772885765,1
183,988,53,0.0847992329879778,1
184,986,53,0.0568725254173308,1
171,991,54,0.0551500746926979,1
171,1002,54,0.0506568088665529,1
171,1003,54,0.0556833670148321,1
172,990,54,0.0689028411231504,1
172,991,54,0.0611238325626518,1
172,992,54,0.054655227481367,1
172,993,54,0.0497099268730666,1
172,998,54,0.0486696039077933,1
172,999,54,0.0488230030771802,1
172,1000,54,0.0514724748950827,1
172,1004,54,0.0876104111231763,1
173,989,54,0.080825550956854,1
173,990,54,0.0706253380627925,1
173,991,54,0.065145768840288,1
173,992,54,0.0600050711729628,1
173,993,54,0.0556668913640415,1
173,994,54,0.0530339934038242,1
173,995,54,0.0528222882234174,1
173,996,54,0.0532327468278942,1
173,997,54,0.05661956756431,1
173,998,54,0.0604144148403419,1
173,999,54,0.0611483611788007,1
174,989,54,0.0795828235817815,1
174,990,54,0.0725572121017514,1
174,991,54,0.0697544508751089,1
174,992,54,0.0659094949753193,1
174,993,54,0.0624237972266558,1
174,994,54,0.0615965023464284,1
174,995,54,0.062729821464025,1
174,996,54,0.0632360548982549,1
174,997,54,0.0692553114447958,1
174,998,54,0.0749864405162919,1
175,988,54,0.0878156115410339,1
175,989,54,0.0778136494828171,1
175,990,54,0.0735547861834869,1
175,991,54,0.0731467538669947,1
175,992,54,0.0708116769800081,1
175,993,54,0.0689704305741494,1
175,994,54,0.0699807022296708,1
175,995,54,0.0717497261298553,1
175,996,54,0.0736778163149335,1
175,997,54,0.082956369056796,1
175,998,54,0.0900495988722059,1
176,988,54,0.0861753773178214,1
176,989,54,0.080845047913873,1
176,990,54,0.0789266224426,1
176,991,54,0.0788143257470471,1
176,992,54,0.0774036761359372,1
176,993,54,0.0769717679903015,1
176,994,54,0.0780045636859465,1
176,995,54,0.0787413233630921,1
176,996,54,0.0832083044027375,1
176,997,54,0.093053730447816,1
177,987,54,0.0876243102872022,1
177,988,54,0.0882976283104273,1
177,989,54,0.0888364722105452,1
177,990,54,0.0882207323119447,1
177,991,54,0.0872609447771309,1
177,992,54,0.0864796858229729,1
177,993,54,0.0862124186477193,1
177,994,54,0.0854039679375055,1
177,995,54,0.0868049932729433,1
178,986,54,0.0836561162884246,1
178,987,54,0.0890226378214762,1
178,988,54,0.0951824399879619,1
178,989,54,0.0981013741940565,1
178,990,54,0.097958546708031,1
178,991,54,0.0971397900507589,1
179,986,54,0.0846624654450376,1
179,987,54,0.0939239244103612,1
179,988,54,0.0994374038958883,1
179,989,54,0.0991417549280913,1
179,990,54,0.0986314834574299,1
180,985,54,0.0726704908662504,1
180,986,54,0.0832153348610167,1
180,987,54,0.0945905990260094,1
180,988,54,0.0988477581468743,1
180,989,54,0.0944304351346465,1
181,985,54,0.0670246573711646,1
181,986,54,0.0780443490320174,1
181,987,54,0.0901524099371143,1
181,988,54,0.0972060392664902,1
181,989,54,0.0941497078379546,1
182,985,54,0.0603462477017276,1
182,986,54,0.0707308527057409,1
182,987,54,0.0823179029274066,1
182,988,54,0.0929200304261135,1
183,985,54,0.0534453994159902,1
183,986,54,0.0629881171506118,1
183,987,54,0.0725752359553511,1
184,986,54,0.0558328841234436,1
171,991,55,0.0566920673600397,1
171,992,55,0.0498135062625035,1
171,1002,55,0.0514149372085913,1
171,1003,55,0.0567086585483533,1
172,990,55,0.0688587057893357,1
172,991,55,0.0628820941425618,1
172,992,55,0.0575607420041564,1
172,993,55,0.0521343200422664,1
172,994,55,0.0483115155740884,1
172,997,55,0.0488485484235321,1
172,998,55,0.0523136227243267,1
172,999,55,0.0523407336041163,1
172,1000,55,0.0536669079552299,1
172,1004,55,0.0953450474979379,1
173,989,55,0.0783624816018048,1
173,990,55,0.0699667452968834,1
173,991,55,0.0660938350933857,1
173,992,55,0.061934438047671,1
173,993,55,0.0574006705428119,1
173,994,55,0.0542601469212115,1
173,995,55,0.0532159418951629,1
173,996,55,0.0538455405196563,1
173,997,55,0.0590930006351791,1
173,998,55,0.0638656766302529,1
173,999,55,0.0635005549498308,1
174,988,55,0.0886803579093661,1
174,989,55,0.0781439192694036,1
174,990,55,0.0722957044720231,1
174,991,55,0.0701290928474324,1
174,992,55,0.067111501150384,1
174,993,55,0.0631132673956068,1
174,994,55,0.061453374462843,1
174,995,55,0.0620522863212076,1
174,996,55,0.0634320411986473,1
174,997,55,0.0697803255034016,1
174,998,55,0.0748150868158191,1
175,988,55,0.0869058170924548,1
175,989,55,0.0762373710555028,1
175,990,55,0.0722015529444692,1
175,991,55,0.072464510570112,1
175,992,55,0.0713783538694348,1
175,993,55,0.0693203070784017,1
175,994,55,0.0699502811998452,1
175,995,55,0.071960264381279,1
175,996,55,0.0747263077830882,1
175,997,55,0.0826952600315223,1
176,987,55,0.0900781539710339,1
176,988,55,0.0846264350684666,1
176,989,55,0.0801013964234759,1
176,990,55,0.0778825676153314,1
176,991,55,0.0779387650665552,1
176,992,55,0.0773998402901711,1
176,993,55,0.0768722670754292,1
176,994,55,0.078014840748624,1
176,995,55,0.0796626253489695,1
176,996,55,0.0838859724137064,1
177,987,55,0.0850934319598602,1
177,988,55,0.0888152248600517,1
177,989,55,0.0928292352636049,1
177,990,55,0.0907934814376491,1
177,991,55,0.0873565405237233,1
177,992,55,0.0853894044327218,1
177,993,55,0.0850023479535439,1
177,994,55,0.0852681478022545,1
178,986,55,0.0827345370124917,1
178,987,55,0.0883206318312716,1
178,988,55,0.0979298587410514,1
178,989,55,0.104531487949529,1
178,990,55,0.101905655108847,1
178,991,55,0.0967662803461615,1
179,985,55,0.0764652572660162,1
179,986,55,0.0838928815575863,1
179,987,55,0.0931839701207025,1
179,988,55,0.100377590489912,1
179,989,55,0.101633055876904,1
179,990,55,0.09912532549231,1
180,985,55,0.0721149691246766,1
180,986,55,0.0821385309228324,1
180,987,55,0.093179406388541,1
180,988,55,0.098568330647317,1
180,989,55,0.0952538768384793,1
181,985,55,0.066236240867452,1
181,986,55,0.0777642051998171,1
181,987,55,0.0895812848530492,1
181,988,55,0.0983933144073628,1
182,985,55,0.0598064506170443,1
182,986,55,0.0712248738237818,1
182,987,55,0.0818293525110833,1
183,985,55,0.0521664856886905,1
183,986,55,0.063225650744302,1
171,991,56,0.0583970199268028,1
171,992,56,0.0540871005960257,1
171,993,56,0.0486899673962353,1
171,1002,56,0.052641177379121,1
171,1003,56,0.0594833845950216,1
172,990,56,0.0681649665089071,1
172,991,56,0.0638857917130203,1
172,992,56,0.0610170816682066,1
172,993,56,0.0558624155143416,1
172,994,56,0.0511571961021152,1
172,997,56,0.0512217411393811,1
172,998,56,0.0557443130582542,1
172,999,56,0.0554633258021354,1
172,1000,56,0.0552078087929786,1
172,1003,56,0.0706485726586829,1
172,1004,56,0.101735318138578,1
173,989,56,0.0763732085213822,1
173,990,56,0.0701647419501773,1
173,991,56,0.068146965762812,1
173,992,56,0.0652236584614691,1
173,993,56,0.0603054340717013,1
173,994,56,0.0563579848351917,1
173,995,56,0.0542353410150073,1
173,996,56,0.0556240153892284,1
173,997,56,0.061962016854429,1
173,998,56,0.0666421877316527,1
174,989,56,0.0782169851989963,1
174,990,56,0.0737990556147724,1
174,991,56,0.0726998662814923,1
174,992,56,0.070012041782805,1
174,993,56,0.0648403222905342,1
174,994,56,0.0621520587492592,1
174,995,56,0.0625348345632072,1
174,996,56,0.0648418358320865,1
174,997,56,0.0700140867969634,1
175,988,56,0.0868155129644193,1
175,989,56,0.0781951601608874,1
175,990,56,0.0745957908201463,1
175,991,56,0.0756168594571992,1
175,992,56,0.0748400602514318,1
175,993,56,0.0710384655840523,1
175,994,56,0.0700208572958156,1
175,995,56,0.0724476132073623,1
175,996,56,0.075760524590267,1
176,987,56,0.0868966318593703,1
176,988,56,0.0857124820084969,1
176,989,56,0.0850854540938919,1
176,990,56,0.0821724527396073,1
176,991,56,0.0809802152621186,1
176,992,56,0.0806010499957667,1
176,993,56,0.079136380815743,1
176,994,56,0.0791356413755953,1
176,995,56,0.0814980255561607,1
177,986,56,0.0829190562137189,1
177,987,56,0.0840804047344134,1
177,988,56,0.0929444897197485,1
177,989,56,0.103337384541042,1
177,990,56,0.0992150981477394,1
177,991,56,0.0903668360261895,1
177,992,56,0.0864723607440099,1
177,993,56,0.0867250875219845,1
177,994,56,0.0876459273577696,1
178,985,56,0.077536295881799,1
178,986,56,0.0821701824272788,1
178,987,56,0.088652963962645,1
178,988,56,0.10346494952027,1
178,989,56,0.117086684845803,1
178,990,56,0.11195669172999,1
178,991,56,0.0990375400822775,1
179,985,56,0.0751229480998052,1
179,986,56,0.0825198971789989,1
179,987,56,0.0918653230392173,1
179,988,56,0.102825738173856,1
179,989,56,0.109895167259513,1
179,990,56,0.105962685909118,1
180,985,56,0.0701294625675063,1
180,986,56,0.079945178138526,1
180,987,56,0.0903673906063003,1
180,988,56,0.100332207350848,1
180,989,56,0.104545098269747,1
181,985,56,0.0642834487599404,1
181,986,56,0.076183992719842,1
181,987,56,0.086746259773088,1
181,988,56,0.100014109442318,1
182,985,56,0.0581360668771853,1
182,986,56,0.0703729116823779,1
182,987,56,0.0791162484023471,1
183,985,56,0.0494631791619111,1
183,986,56,0.0619090486769752,1
170,992,57,0.050318936710948,1
171,991,57,0.0610485136513591,1
171,992,57,0.0583007482857004,1
171,993,57,0.0529448042128863,1
172,990,57,0.0698340100134985,1
172,991,57,0.0655739046857952,1
172,992,57,0.0640318658034442,1
172,993,57,0.0591881169010507,1
172,994,57,0.0529188024933182,1
172,995,57,0.0483139331967587,1
172,997,57,0.0514184148880358,1
172,998,57,0.055301451955431,1
172,999,57,0.056048257620208,1
172,1000,57,0.0556522527598679,1
172,1001,57,0.0584267592852424,1
172,1002,57,0.0641291426209974,1
172,1003,57,0.0767238706807915,1
173,989,57,0.0771669224205278,1
173,990,57,0.0715395575985054,1
173,991,57,0.0703169799674572,1
173,992,57,0.0684907476627221,1
173,993,57,0.0637238543206782,1
173,994,57,0.0586322658775361,1
173,995,57,0.0550544385079725,1
173,996,57,0.0559183241217577,1
173,997,57,0.0608500779554776,1
173,998,57,0.0650887972876596,1
174,989,57,0.0779336178699022,1
174,990,57,0.0741585159565638,1
174,991,57,0.0741097591218261,1
174,992,57,0.0721601500730752,1
174,993,57,0.0670838530211121,1
174,994,57,0.0644037522058424,1
174,995,57,0.0643807775693789,1
174,996,57,0.0660961285132188,1
175,988,57,0.0857748260559483,1
175,989,57,0.0806911923712699,1
175,990,57,0.0773241978738138,1
175,991,57,0.0785578728839534,1
175,992,57,0.0777990455399004,1
175,993,57,0.0728905494095755,1
175,994,57,0.0713331902516648,1
175,995,57,0.0737044303833738,1
176,987,57,0.0848664065038937,1
176,988,57,0.0888286156589761,1
176,989,57,0.0920700497532303,1
176,990,57,0.0877727586737254,1
176,991,57,0.0851899751141418,1
176,992,57,0.0845413647902264,1
176,993,57,0.0822825946603548,1
176,994,57,0.0814487661331976,1
177,986,57,0.0803525403373844,1
177,987,57,0.0851708132159398,1
177,988,57,0.098464185124017,1
177,989,57,0.111977442269135,1
177,990,57,0.104970588305976,1
177,991,57,0.0931730807091527,1
177,992,57,0.088950605952715,1
177,993,57,0.0898226600693817,1
178,985,57,0.0757683638112076,1
178,986,57,0.0806951206470545,1
178,987,57,0.0903910238066453,1
178,988,57,0.109131117619417,1
178,989,57,0.126004021075523,1
178,990,57,0.117278130521538,1
178,991,57,0.0999279068963516,1
178,993,57,0.0921064556267513,1
179,985,57,0.0734159216345029,1
179,986,57,0.0806009980038813,1
179,987,57,0.0919394288065177,1
179,988,57,0.109517867924159,1
179,989,57,0.125051633719062,1
179,990,57,0.118483082903441,1
180,985,57,0.0689412689033252,1
180,986,57,0.0779184420162462,1
180,987,57,0.0889577172872603,1
180,988,57,0.109220381909745,1
180,989,57,0.129307469935288,1
181,985,57,0.0630078105214199,1
181,986,57,0.0747658909384937,1
181,987,57,0.0845602031833638,1
181,988,57,0.105360157726281,1
182,985,57,0.0567096406172994,1
182,986,57,0.0696658047105295,1
170,992,58,0.0563643856139701,1
170,993,58,0.051637687776204,1
171,991,58,0.0658085094032755,1
171,992,58,0.0640185905420429,1
171,993,58,0.0589187469428771,1
171,994,58,0.0506925503993162,1
171,999,58,0.0489247916350094,1
171,1000,58,0.0482941878340652,1
171,1001,58,0.0489809602018524,1
171,1002,58,0.0541811712473135,1
172,991,58,0.0706955271080607,1
172,992,58,0.070348342628096,1
172,993,58,0.0657357669787474,1
172,994,58,0.0570879393522283,1
172,995,58,0.0517965345398039,1
172,996,58,0.0501588305883466,1
172,997,58,0.05240406549739,1
172,998,58,0.0547934450202218,1
172,999,58,0.0569896631351005,1
172,1000,58,0.0572995347719881,1
172,1001,58,0.0582682591342117,1
172,1002,58,0.0654608974344754,1
172,1003,58,0.0802480482015152,1
173,990,58,0.0755341750288104,1
173,991,58,0.0754052929218201,1
173,992,58,0.0746295046693797,1
173,993,58,0.0703813112603055,1
173,994,58,0.0640705073280367,1
173,995,58,0.0595691596521526,1
173,996,58,0.0584826274545254,1
173,997,58,0.0601611277053804,1
173,1002,58,0.077543170364422,1
173,1003,58,0.097675861050323,1
173,1004,58,0.132636417926395,1
174,989,58,0.080014460214238,1
174,990,58,0.0779384762227475,1
174,991,58,0.0781602678289187,1
174,992,58,0.0765284909523952,1
174,993,58,0.0723900524133663,1
174,994,58,0.070015236395318,1
174,995,58,0.0696287922650124,1
174,996,58,0.06903199474332,1
175,988,58,0.0850281590361989,1
175,989,58,0.0851861219377473,1
175,990,58,0.0834838902796526,1
175,991,58,0.0825871400174286,1
175,992,58,0.0809882797812292,1
175,993,58,0.0771625262177747,1
175,994,58,0.0759754590444437,1
175,995,58,0.0774768633799292,1
176,987,58,0.0843870355437787,1
176,988,58,0.0929995433494938,1
176,989,58,0.100282791952229,1
176,990,58,0.0978149104593439,1
176,991,58,0.0911017008879567,1
176,992,58,0.0887809968688407,1
176,993,58,0.0879930482920966,1
176,994,58,0.0869043497659117,1
177,986,58,0.0810383710743585,1
177,987,58,0.0909637202010242,1
177,988,58,0.104120740501244,1
177,989,58,0.115732561967857,1
177,990,58,0.110532772634355,1
177,991,58,0.0966695465549668,1
177,992,58,0.0923036261867552,1
177,993,58,0.0951118869994961,1
178,985,58,0.072994151906517,1
178,986,58,0.0836478553555247,1
178,987,58,0.0968040553393309,1
178,988,58,0.114052900564895,1
178,989,58,0.128770763479347,1
178,990,58,0.1219537376666,1
178,991,58,0.101415891548532,1
179,985,58,0.0715094600737444,1
179,986,58,0.0812259982349564,1
179,987,58,0.093006764444686,1
179,988,58,0.11958056228138,1
179,989,58,0.152524827627259,1
179,990,58,0.148572034780307,1
180,985,58,0.0686202710029655,1
180,986,58,0.0776319551740291,1
180,987,58,0.0862474669553441,1
180,988,58,0.123441907178818,1
181,985,58,0.0627189031680943,1
181,986,58,0.0742675140558329,1
181,987,58,0.0808701599945134,1
182,985,58,0.0544664045074053,1
182,986,58,0.067541728225059,1
170,992,59,0.0582817481400307,1
170,993,59,0.0543781916085374,1
171,991,59,0.0689254287089116,1
171,992,59,0.0655873648072335,1
171,993,59,0.0610307266496817,1
171,994,59,0.0531643486142337,1
171,997,59,0.0499384832012139,1
171,998,59,0.0492648936648096,1
171,999,59,0.0499636068356066,1
171,1000,59,0.0496266936414433,1
171,1001,59,0.0504412389559992,1
171,1002,59,0.0554179773243284,1
172,990,59,0.075867679866043,1
172,991,59,0.0743160686999052,1
172,992,59,0.0731928475618255,1
172,993,59,0.0686847640483461,1
172,994,59,0.060144241896383,1
172,995,59,0.0556003533045026,1
172,996,59,0.0533113932198515,1
172,997,59,0.0529345849189703,1
172,998,59,0.0533604735596538,1
172,999,59,0.0565690083442123,1
172,1000,59,0.0583247107679862,1
172,1001,59,0.0589924714363514,1
172,1002,59,0.06697060891787,1
172,1003,59,0.0840800696755965,1
173,990,59,0.0765646946352508,1
173,991,59,0.0770566071934956,1
173,992,59,0.0770717888240277,1
173,993,59,0.0733613128242214,1
173,994,59,0.0671560408655295,1
173,995,59,0.0628203566671066,1
173,996,59,0.0601197883796241,1
173,997,59,0.0587829268076261,1
173,1003,59,0.0999641972323495,1
173,1004,59,0.118001742028558,1
174,989,59,0.0797278520576216,1
174,990,59,0.0789724157398709,1
174,991,59,0.0797039762284781,1
174,992,59,0.0794090782545811,1
174,993,59,0.0761069465225794,1
174,994,59,0.0728503423515454,1
174,995,59,0.0713844773581578,1
174,996,59,0.0687821159652892,1
175,988,59,0.0839322105304411,1
175,989,59,0.0881748061465223,1
175,990,59,0.0888217007382201,1
175,991,59,0.0862398761400781,1
175,992,59,0.0843142988961268,1
175,993,59,0.081570814195698,1
175,994,59,0.0790766710238177,1
176,987,59,0.0882469766603112,1
176,988,59,0.0987004940199627,1
176,989,59,0.107845577815169,1
176,990,59,0.108203651706683,1
176,991,59,0.0983315711550314,1
176,992,59,0.0939326590471057,1
176,993,59,0.0935146096273628,1
177,986,59,0.0831832963058679,1
177,987,59,0.102811492397261,1
177,988,59,0.11359943889433,1
177,989,59,0.119822879128525,1
177,990,59,0.116717322938284,1
177,991,59,0.102438502611518,1
178,985,59,0.0708948697734984,1
178,986,59,0.0869752666975753,1
178,987,59,0.108743708750794,1
178,988,59,0.125110788930877,1
178,989,59,0.136784619386124,1
178,990,59,0.131539389144797,1
179,985,59,0.0697692512318148,1
179,986,59,0.0811754967836202,1
179,987,59,0.0981927066060474,1
179,988,59,0.138886581989678,1
179,989,59,0.194397058654981,1
180,985,59,0.0681105772199195,1
180,986,59,0.0775507380721834,1
180,987,59,0.0889633324108818,1
180,988,59,0.149851000499492,1
181,985,59,0.0624494118955215,1
181,986,59,0.074048662879624,1
181,987,59,0.0813254875960764,1
182,985,59,0.0522750678528765,1
182,986,59,0.0653082261514839,1
170,992,60,0.0608429897284369,1
170,993,60,0.0572729784723093,1
171,991,60,0.0735653809743529,1
171,992,60,0.068441598000406,1
171,993,60,0.063772651593549,1
171,994,60,0.0566971394573027,1
171,997,60,0.0533779428331427,1
171,998,60,0.0511826547953248,1
171,999,60,0.051872997272575,1
171,1000,60,0.0522043588887546,1
171,1001,60,0.0534479123571171,1
172,990,60,0.0798948037784652,1
172,991,60,0.0790193528586201,1
172,992,60,0.0765115935896455,1
172,993,60,0.0721878213098517,1
172,994,60,0.0649518737690632,1
172,995,60,0.0612208436439019,1
172,996,60,0.058307830735865,1
172,997,60,0.0557099984139009,1
172,998,60,0.0545858125375035,1
172,999,60,0.0583966617604813,1
172,1000,60,0.0605756243462887,1
172,1001,60,0.0615159033703312,1
172,1002,60,0.0694376238793322,1
173,990,60,0.0774239876324938,1
173,991,60,0.0783126560449787,1
173,992,60,0.0814176865394904,1
173,993,60,0.0805427382078707,1
173,994,60,0.0735876103937926,1
173,995,60,0.0667784353557391,1
173,996,60,0.0622949959959316,1
173,997,60,0.0592461513988914,1
173,998,60,0.059528750403457,1
173,1000,60,0.0689519792317143,1
173,1003,60,0.103251759682691,1
174,989,60,0.0813095838560251,1
174,990,60,0.0833536737142707,1
174,991,60,0.0822970368507392,1
174,992,60,0.088511621133791,1
174,993,60,0.0930620549263536,1
174,994,60,0.0856753309179521,1
174,995,60,0.0749301044200405,1
174,996,60,0.0685128904290195,1
175,988,60,0.0852685579604614,1
175,989,60,0.0991394210701252,1
175,990,60,0.105695909768337,1
175,991,60,0.0958673117634945,1
175,992,60,0.0957543853884408,1
175,993,60,0.102145926941835,1
176,987,60,0.0959950153877495,1
176,988,60,0.10559127898744,1
176,989,60,0.120998126813246,1
176,990,60,0.127059271488778,1
176,991,60,0.10935750184213,1
176,992,60,0.100666018362517,1
177,986,60,0.0861692942672315,1
177,987,60,0.116404932583393,1
177,988,60,0.12240651766578,1
177,989,60,0.125162387988682,1
177,990,60,0.124031760895373,1
177,991,60,0.108006105649729,1
178,985,60,0.06752290716255,1
178,986,60,0.0872863052634459,1
178,987,60,0.117478391710284,1
178,988,60,0.133292463089921,1
178,989,60,0.145442365908999,1
178,990,60,0.139218140019647,1
179,985,60,0.0663621536600993,1
179,986,60,0.0788525282290519,1
179,987,60,0.102652050615418,1
179,988,60,0.157007475555033,1
179,989,60,0.230595403677014,1
180,985,60,0.0654146708714931,1
180,986,60,0.0765392070576604,1
180,987,60,0.094180342612198,1
180,988,60,0.173634064565695,1
181,985,60,0.0594516002224236,1
181,986,60,0.0719459088440369,1
181,987,60,0.0828189256193458,1
182,985,60,0.0483786284328047,1
182,986,60,0.0612265280900372,1
171,992,61,0.069923823107061,1
171,993,61,0.0635161294079414,1
171,998,61,0.0517738025321388,1
172,991,61,0.083471094498972,1
172,992,61,0.0771653973252232,1
172,993,61,0.0718210358890973,1
172,995,61,0.0658607208099532,1
172,997,61,0.0582270988916162,1
172,998,61,0.055996820314935,1
172,999,61,0.0591661416641618,1
172,1000,61,0.0619784751745911,1
172,1001,61,0.0640057716538577,1
173,990,61,0.0797487816799267,1
173,991,61,0.0807070383425597,1
173,992,61,0.084838954788411,1
173,993,61,0.0871832977847482,1
173,994,61,0.0793363762681861,1
173,995,61,0.0703362631800585,1
173,996,61,0.0645411840895403,1
173,997,61,0.0604448647545484,1
173,998,61,0.0596237569086817,1
173,999,61,0.0642772848330843,1
173,1000,61,0.0690124515712918,1
173,1001,61,0.0728206029931058,1
174,989,61,0.0875182757254,1
174,990,61,0.09370153200907,1
174,991,61,0.0882944568054189,1
174,992,61,0.104122716192889,1
174,993,61,0.121748912745693,1
174,994,61,0.106276058332954,1
174,995,61,0.0798084452568427,1
174,996,61,0.0683117338244695,1
175,988,61,0.0914491395504722,1
175,989,61,0.116562964807455,1
175,990,61,0.131747922820195,1
175,991,61,0.11117038956295,1
175,992,61,0.118502481653566,1
175,993,61,0.139687268578341,1
176,987,61,0.104644691614638,1
176,988,61,0.113536586481777,1
176,989,61,0.136745417504545,1
176,990,61,0.150288760620671,1
176,991,61,0.122535284235247,1
176,992,61,0.112739273588788,1
177,986,61,0.0919254834274826,1
177,987,61,0.12563684282719,1
177,988,61,0.131708616954845,1
177,989,61,0.135056894373563,1
177,990,61,0.134529246059431,1
177,991,61,0.11453204622684,1
178,985,61,0.0678299076919892,1
178,986,61,0.087331694179386,1
178,987,61,0.121029298836972,1
178,988,61,0.141838045785394,1
178,989,61,0.157687044158256,1
178,990,61,0.147304102894575,1
179,985,61,0.065737292074052,1
179,986,61,0.0788901125853083,1
179,987,61,0.107223581559694,1
179,988,61,0.166899636528195,1
180,985,61,0.0628678541428428,1
180,986,61,0.0764421382076488,1
180,987,61,0.100809215568617,1
181,985,61,0.0560089344242294,1
181,986,61,0.0703540501817359,1
172,992,62,0.0773493908307203,1
172,994,62,0.0696124668130019,1
172,998,62,0.0579196708733417,1
173,990,62,0.080480082209107,1
173,991,62,0.0813025996127552,1
173,992,62,0.086511100475497,1
173,993,62,0.0954575117228992,1
173,994,62,0.0865224520371391,1
173,995,62,0.0735464385974447,1
173,996,62,0.0659766338299783,1
173,997,62,0.0617884332797609,1
173,998,62,0.060667909942845,1
173,999,62,0.0639450046935963,1
173,1000,62,0.0704793737330155,1
173,1001,62,0.0763068033299948,1
174,989,62,0.0927528880683568,1
174,990,62,0.105257779927084,1
174,991,62,0.0973473994259726,1
174,992,62,0.128010179964943,1
174,993,62,0.16726702274407,1
174,994,62,0.137878667299627,1
174,995,62,0.0865342195338643,1
174,996,62,0.0667711853761661,1
174,997,62,0.0652306484816151,1
175,988,62,0.0936453056734654,1
175,989,62,0.130382315512456,1
175,990,62,0.155881712591446,1
175,991,62,0.130270105470045,1
175,992,62,0.157889385022418,1
175,994,62,0.168412484855341,1
175,995,62,0.0964353577725697,1
176,987,62,0.103820273618735,1
176,988,62,0.113551768112309,1
176,989,62,0.144494010812094,1
176,990,62,0.166398111248031,1
176,991,62,0.132524577604059,1
177,986,62,0.0941166987676121,1
177,987,62,0.122382277893439,1
177,988,62,0.13093986493756,1
177,989,62,0.137356645662869,1
177,990,62,0.138700173749949,1
178,985,62,0.0674941325424282,1
178,986,62,0.0859209867995145,1
178,987,62,0.117043693333466,1
178,988,62,0.143910904486886,1
178,989,62,0.161339901595305,1
179,985,62,0.0638906500658656,1
179,986,62,0.0795632110872395,1
179,987,62,0.108127674231509,1
179,988,62,0.161449939532282,1
180,985,62,0.0586769153533285,1
180,986,62,0.0771130010585086,1
180,987,62,0.104768709591907,1
181,985,62,0.0509923182798108,1
181,986,62,0.0695676613615533,1
172,993,63,0.072973262722345,1
173,990,63,0.0849035807019431,1
173,992,63,0.0920733252420095,1
173,993,63,0.104654385212824,1
173,994,63,0.0950361810375011,1
173,995,63,0.0788599861761664,1
173,997,63,0.0622039928658815,1
173,998,63,0.0608016330720522,1
173,999,63,0.0637850834310319,1
173,1001,63,0.0805914199432184,1
174,989,63,0.0971385422455097,1
174,990,63,0.11351612478644,1
174,991,63,0.10916648365523,1
174,992,63,0.1465809650914,1
174,993,63,0.197204112100605,1
174,994,63,0.158736691001642,1
174,995,63,0.0939411741625563,1
174,996,63,0.068216322937914,1
174,997,63,0.0648012243927255,1
174,998,63,0.064552443221164,1
174,1000,63,0.0752974848590387,1
174,1001,63,0.0831660118924159,1
175,988,63,0.0951584948363046,1
175,989,63,0.131451626842269,1
175,990,63,0.159748568628734,1
175,991,63,0.143637300078492,1
175,992,63,0.188406738481094,1
175,993,63,0.255781798052241,1
175,994,63,0.201758994087806,1
175,995,63,0.107868396475976,1
175,996,63,0.0719570004462521,1
176,987,63,0.0983391619702974,1
176,988,63,0.109068542496919,1
176,989,63,0.137931040458837,1
176,990,63,0.159760676961152,1
176,991,63,0.134599065384625,1
176,994,63,0.149168647441962,1
176,995,63,0.0954143873424114,1
177,986,63,0.0914602195989351,1
177,987,63,0.111694941471464,1
177,988,63,0.123502726130964,1
177,989,63,0.131458131604818,1
177,990,63,0.132683718988342,1
178,986,63,0.0846759255664759,1
178,987,63,0.11017624694565,1
178,988,63,0.136162669345658,1
178,989,63,0.149732759398377,1
179,985,63,0.0635422755494133,1
179,986,63,0.0807922126045707,1
179,987,63,0.105338690854493,1
179,988,63,0.140308271211118,1
180,985,63,0.0566022947046103,1
180,986,63,0.0769804159739037,1
181,985,63,0.0490868503417507,1
173,992,64,0.0979784076082476,1
173,993,64,0.11080032287654,1
173,994,64,0.100231100464405,1
173,1001,64,0.0851046390995985,1
174,990,64,0.116585355979427,1
174,991,64,0.12134929156088,1
174,992,64,0.158030248370551,1
174,993,64,0.2076792523077,1
174,994,64,0.165397533190695,1
174,995,64,0.0991228992043254,1
174,996,64,0.0716982599402015,1
174,997,64,0.0662790359659991,1
174,998,64,0.064787567857498,1
174,999,64,0.0658138067987085,1
174,1000,64,0.0720883608331124,1
174,1001,64,0.0824215169781004,1
175,989,64,0.121535075897985,1
175,990,64,0.148667399451853,1
175,991,64,0.149702523228588,1
175,992,64,0.202968440879357,1
175,993,64,0.272664395106533,1
175,994,64,0.211690252958777,1
175,995,64,0.114356718035574,1
175,996,64,0.0762751113874152,1
176,988,64,0.104084242197705,1
176,989,64,0.126356364305893,1
176,990,64,0.142882770730297,1
176,991,64,0.130530307525763,1
176,993,64,0.192972943145556,1
176,994,64,0.155307306241725,1
176,995,64,0.100133609902435,1
177,987,64,0.101013093081835,1
177,988,64,0.116104685222178,1
177,989,64,0.127715905893671,1
177,990,64,0.130263912658809,1
178,986,64,0.0816708581369288,1
178,987,64,0.103516144196744,1
178,988,64,0.125064157986564,1
178,989,64,0.136594375300629,1
179,986,64,0.0785192198056086,1
179,987,64,0.101399323467723,1
179,988,64,0.120461674539856,1
180,986,64,0.0740348908068734,1
180,987,64,0.0989771139577092,1
181,986,64,0.0654318975161836,1
173,992,65,0.106194269320369,1
173,993,65,0.113899663148041,1
174,991,65,0.133618694840076,1
174,992,65,0.157988423787198,1
174,993,65,0.191143545112689,1
174,994,65,0.153470652452409,1
174,995,65,0.102092121117338,1
174,996,65,0.0774998611238973,1
174,997,65,0.0677376971948229,1
174,998,65,0.0644013028103532,1
174,999,65,0.0646893031941226,1
174,1000,65,0.0707821513659863,1
174,1001,65,0.0819178195925019,1
175,989,65,0.110430614356452,1
175,990,65,0.134617181668244,1
175,991,65,0.148464411577562,1
175,992,65,0.19215471796089,1
175,993,65,0.243053445070134,1
175,994,65,0.191094337681611,1
175,995,65,0.115091825526139,1
175,996,65,0.0813330379732093,1
176,988,65,0.0999387096547591,1
176,989,65,0.11539445296033,1
176,990,65,0.128966749779739,1
176,993,65,0.178836441939714,1
176,994,65,0.147811173975848,1
176,995,65,0.102977542925425,1
177,987,65,0.091644692585153,1
177,988,65,0.106367217438661,1
177,989,65,0.120619995607726,1
178,987,65,0.0955224149264867,1
178,988,65,0.110384676637278,1
179,987,65,0.0955331310317519,1
179,988,65,0.104611220394203,1
180,987,65,0.0919899591422346,1
174,992,66,0.145803120271049,1
174,993,66,0.15259903737833,1
174,995,66,0.102845460429045,1
174,996,66,0.0881810856109014,1
174,997,66,0.0723049532507453,1
175,991,66,0.141709487183469,1
175,992,66,0.16014064521329,1
175,993,66,0.179836442309434,1
175,994,66,0.149706705686923,1
175,995,66,0.110528428423488,1
175,996,66,0.088515566740204,1
176,989,66,0.111751936131597,1
176,990,66,0.125954155080564,1
176,991,66,0.127343100967964,1
176,993,66,0.145193243901745,1
177,988,66,0.0980467711606511,1
177,989,66,0.114459361571074,1
177,990,66,0.128288833363096,1
178,988,66,0.0973540197260448,1
178,989,66,0.108630401101914,1
179,987,66,0.0906812425108578,1
179,988,66,0.0922395721839624,1
180,987,66,0.0828576191358237,1
174,994,67,0.103851052814882,1
174,995,67,0.0986621240085494,1
174,996,67,0.0944679039533798,1
175,991,67,0.125810842336941,1
175,992,67,0.125695085292572,1
175,993,67,0.125604966024574,1
175,994,67,0.114488592564412,1
175,995,67,0.100145417837293,1
176,990,67,0.119063970908206,1
176,994,67,0.109411353881636,1
177,989,67,0.104690895070116,1
178,988,67,0.0869678087504608,1
179,988,67,0.0821048286273514,1
174,994,68,0.088318355742067,1
174,995,68,0.093064775835022,1
175,992,68,0.101665394829613,1
175,994,68,0.094073978768455,1
176,991,68,0.106143640777758,1
177,989,68,0.0901254781404855,1
177,990,68,0.101315235258429,1
178,988,68,0.0758195989258153,1
176,992,69,0.0908285008608932,1
177,991,69,0.0892870165586529,1
178,989,69,0.0707384030828739,1
