x,y,z,signal,cytoplasm.p
534,190,25,0.0944184827778844,1
535,186,25,0.0487189730914033,1
535,187,25,0.05134808719774,1
535,188,25,0.0552620594369385,1
535,189,25,0.0580355434552337,1
533,190,26,0.136360642891448,1
534,181,26,0.0681791891779977,1
534,182,26,0.0711357943934909,1
534,183,26,0.0757027500518532,1
534,184,26,0.081847526563463,1
534,185,26,0.0873668464707816,1
534,186,26,0.0926692735629073,1
534,187,26,0.0990297644069745,1
534,188,26,0.107051395989055,1
534,189,26,0.109239642014841,1
534,190,26,0.106793493130046,1
534,191,26,0.10066252912932,1
535,178,26,0.0598623996625935,1
535,180,26,0.0493359896796339,1
535,183,26,0.0489434740524906,1
535,184,26,0.0526032175259146,1
535,185,26,0.0561827375201913,1
535,186,26,0.0600415752533784,1
535,187,26,0.0635013406049877,1
535,188,26,0.0678539568274173,1
535,189,26,0.0692813016106116,1
535,190,26,0.0696399531897414,1
535,191,26,0.0688020346342674,1
533,183,27,0.134334854176857,1
533,184,27,0.135228895084165,1
533,186,27,0.130632997276272,1
533,187,27,0.137456955340403,1
533,188,27,0.145166254336354,1
533,189,27,0.147684671941833,1
533,190,27,0.142440054049378,1
533,191,27,0.130826187568606,1
534,178,27,0.0967124283066562,1
534,180,27,0.0853975324974702,1
534,181,27,0.0839583797794176,1
534,182,27,0.0873283724755975,1
534,183,27,0.0915580336659705,1
534,184,27,0.0964626939505292,1
534,185,27,0.100522590081372,1
534,186,27,0.105717792575208,1
534,187,27,0.114150379573114,1
534,188,27,0.122059893542802,1
534,189,27,0.123150787281925,1
534,190,27,0.117500598022219,1
534,191,27,0.109555752677975,1
534,192,27,0.102199536352541,1
535,178,27,0.0703392671556584,1
535,179,27,0.0642378345458303,1
535,180,27,0.0592223333385094,1
535,181,27,0.0567694312854908,1
535,182,27,0.0571558349776634,1
535,183,27,0.0598273802393494,1
535,184,27,0.0635287345517089,1
535,185,27,0.0674446247137905,1
535,186,27,0.0719075792707567,1
535,187,27,0.0776681935181416,1
535,188,27,0.0828578386571175,1
535,189,27,0.0840443974653471,1
535,190,27,0.0820622241657174,1
535,191,27,0.0802470719094452,1
535,192,27,0.0792643790606818,1
536,188,27,0.0501016626219291,1
536,189,27,0.0508378792727162,1
536,190,27,0.0512714858199411,1
536,191,27,0.0525075640105607,1
536,192,27,0.0541818124805666,1
536,193,27,0.0531347421239457,1
536,194,27,0.0513480987514923,1
536,195,27,0.0510012088922114,1
532,183,28,0.176835308932548,1
532,184,28,0.164953938424601,1
532,186,28,0.140375271420749,1
532,187,28,0.142511929942483,1
532,188,28,0.147901270136342,1
532,189,28,0.151936938048595,1
533,181,28,0.132497842221219,1
533,182,28,0.139304816269458,1
533,183,28,0.140953039912391,1
533,184,28,0.137971732774464,1
533,185,28,0.134715446331619,1
533,186,28,0.135431963834722,1
533,187,28,0.144080351818228,1
533,188,28,0.151156447418966,1
533,189,28,0.151817506910992,1
533,190,28,0.144254674833044,1
533,191,28,0.131116221412782,1
534,179,28,0.104764307612278,1
534,180,28,0.101006784733075,1
534,181,28,0.10125620713789,1
534,182,28,0.101255386821476,1
534,183,28,0.103611069825703,1
534,184,28,0.106532158806603,1
534,185,28,0.11033862338058,1
534,186,28,0.115866181113294,1
534,187,28,0.125804037176832,1
534,188,28,0.133064172498077,1
534,189,28,0.132880109670065,1
534,190,28,0.125021593963063,1
534,191,28,0.116689351303947,1
534,192,28,0.109608645756039,1
535,179,28,0.0742631351837084,1
535,180,28,0.0691973693769736,1
535,181,28,0.0670901440392436,1
535,182,28,0.0662943389109304,1
535,183,28,0.0697376863805107,1
535,184,28,0.0741061601279823,1
535,185,28,0.0797155299807857,1
535,186,28,0.0858446511580187,1
535,187,28,0.0933209976230696,1
535,188,28,0.0986285141430868,1
535,189,28,0.0993185735534055,1
535,190,28,0.0951567328890777,1
535,191,28,0.0924983993431553,1
535,192,28,0.091845924289093,1
535,193,28,0.0892202300934394,1
535,194,28,0.0851922107652133,1
535,195,28,0.0836370641508695,1
536,184,28,0.0480334485288653,1
536,185,28,0.0517022848053553,1
536,186,28,0.0550027585739009,1
536,187,28,0.0579058872468388,1
536,188,28,0.0603679514254373,1
536,189,28,0.061216528317415,1
536,190,28,0.0612313517816256,1
536,191,28,0.0624519941591623,1
536,192,28,0.0644183272643783,1
536,193,28,0.0636766687962543,1
536,194,28,0.0613322391467748,1
536,195,28,0.0604454771034207,1
536,196,28,0.0617668393166982,1
531,184,29,0.14310379401194,1
532,181,29,0.165950541991142,1
532,182,29,0.173370592798075,1
532,183,29,0.167069372703345,1
532,184,29,0.150423847092651,1
532,185,29,0.139034007869122,1
532,187,29,0.140064660343714,1
533,179,29,0.139341869153108,1
533,180,29,0.139863278440994,1
533,181,29,0.149189756147428,1
533,182,29,0.147867267443301,1
533,183,29,0.142699724632489,1
533,184,29,0.134969917726192,1
533,185,29,0.132631149415343,1
533,186,29,0.135764284412343,1
533,187,29,0.144903510455129,1
533,188,29,0.150496554855922,1
533,189,29,0.148443730360932,1
534,180,29,0.116400426619993,1
534,181,29,0.116895793750178,1
534,182,29,0.113080236373135,1
534,183,29,0.112122141463034,1
534,184,29,0.112764587860093,1
534,185,29,0.116932915956342,1
534,186,29,0.123767780762651,1
534,187,29,0.133204076884768,1
534,188,29,0.138349609797434,1
534,189,29,0.13493746323596,1
534,190,29,0.126368692159605,1
534,191,29,0.117913425145919,1
535,180,29,0.0806079244783897,1
535,181,29,0.0781856745302429,1
535,182,29,0.0761658244443385,1
535,183,29,0.0786178541890578,1
535,184,29,0.0836812572534457,1
535,185,29,0.0916807171848478,1
535,186,29,0.0998881157734045,1
535,187,29,0.106756255386359,1
535,188,29,0.110327901498438,1
535,189,29,0.109068704249452,1
535,190,29,0.105156303320567,1
535,191,29,0.102098256159814,1
535,192,29,0.101832219459181,1
535,193,29,0.0984167223095378,1
535,194,29,0.0934851937739879,1
535,195,29,0.0917081400159497,1
536,181,29,0.0503457183087969,1
536,182,29,0.049665756877995,1
536,183,29,0.0515827150227248,1
536,184,29,0.0554509401796618,1
536,185,29,0.0607419463876315,1
536,186,29,0.0656952190850242,1
536,187,29,0.069104922027885,1
536,188,29,0.0715337576148471,1
536,189,29,0.0724013750906276,1
536,190,29,0.0736316359669603,1
536,191,29,0.0747216689515367,1
536,192,29,0.0770146266344862,1
536,193,29,0.0757082611917039,1
536,194,29,0.0730181894881928,1
536,195,29,0.071705492589146,1
536,196,29,0.0721322939762618,1
537,191,29,0.0486648841999757,1
537,192,29,0.0516456945265531,1
537,193,29,0.0523469784072385,1
537,194,29,0.0523320682898857,1
537,195,29,0.051790301290434,1
537,196,29,0.0520349693261741,1
531,183,30,0.148095407836365,1
531,184,30,0.130390819074154,1
532,181,30,0.171798138662774,1
532,182,30,0.167306940958292,1
532,183,30,0.153265238290133,1
532,184,30,0.134873917598269,1
532,185,30,0.126471589877656,1
532,187,30,0.132875973426739,1
533,179,30,0.155128800768574,1
533,180,30,0.155987568070087,1
533,181,30,0.158809468087427,1
533,182,30,0.150755867272712,1
533,183,30,0.140365658698829,1
533,184,30,0.129392459337262,1
533,185,30,0.126783136808628,1
533,186,30,0.130449951178464,1
533,187,30,0.138036272034854,1
533,188,30,0.141726910241949,1
533,189,30,0.138621284729193,1
534,180,30,0.130649172529503,1
534,181,30,0.126389639112539,1
534,182,30,0.120061348576153,1
534,183,30,0.117013699792476,1
534,184,30,0.116455283835949,1
534,185,30,0.12117284265564,1
534,186,30,0.127259856182588,1
534,187,30,0.133728432379493,1
534,188,30,0.136054757299106,1
534,189,30,0.13146610369391,1
534,190,30,0.124345503039284,1
535,181,30,0.0868386666840435,1
535,182,30,0.0845223530908044,1
535,183,30,0.0865810468919667,1
535,184,30,0.0924648934614635,1
535,185,30,0.102418953662613,1
535,186,30,0.110328386756035,1
535,187,30,0.114689581639553,1
535,188,30,0.116009170351852,1
535,189,30,0.115609537613287,1
535,190,30,0.114672135473569,1
535,191,30,0.111754246882058,1
536,181,30,0.0576841822938099,1
536,182,30,0.0579040386464696,1
536,183,30,0.0601175989435619,1
536,184,30,0.065227788927919,1
536,185,30,0.0728275294676142,1
536,186,30,0.0787704041576501,1
536,187,30,0.0811740410108295,1
536,188,30,0.0822341151156725,1
536,189,30,0.0848004634625986,1
536,190,30,0.0889187291500986,1
536,191,30,0.0904922924456207,1
536,192,30,0.0906392735056007,1
536,193,30,0.0872179359341662,1
536,194,30,0.0843890978885656,1
536,195,30,0.0818464231801176,1
537,185,30,0.050097942313686,1
537,186,30,0.0540124460254907,1
537,187,30,0.0549075152167539,1
537,188,30,0.0544907655941457,1
537,189,30,0.0557680560192461,1
537,190,30,0.0593977250754137,1
537,191,30,0.0620149041556167,1
537,192,30,0.0638585479650792,1
537,193,30,0.0635542047986708,1
537,194,30,0.063283887432808,1
537,195,30,0.0616098931453529,1
531,183,31,0.139383058280084,1
531,184,31,0.121544053163528,1
531,185,31,0.1165844663405,1
532,182,31,0.162618243411866,1
532,183,31,0.14191453162567,1
532,184,31,0.123409810854907,1
532,185,31,0.11773152286959,1
532,186,31,0.120110209394661,1
533,181,31,0.167848869710276,1
533,182,31,0.152117003278308,1
533,183,31,0.136425124383076,1
533,184,31,0.124022575662289,1
533,185,31,0.122496879562577,1
533,186,31,0.125842846230833,1
533,187,31,0.130436248428228,1
533,188,31,0.130865354788929,1
533,189,31,0.126792969051842,1
534,181,31,0.1372836952708,1
534,182,31,0.126575146159588,1
534,183,31,0.120210276443396,1
534,184,31,0.118555132102831,1
534,185,31,0.124288288857857,1
534,186,31,0.129283264824204,1
534,187,31,0.132011094190256,1
534,188,31,0.13023052231464,1
534,189,31,0.124314134601769,1
534,190,31,0.116736120893288,1
535,181,31,0.0981076016665502,1
535,182,31,0.0947029592672,1
535,183,31,0.0955625815463838,1
535,184,31,0.100850809076924,1
535,185,31,0.111039023399214,1
535,186,31,0.11780007128203,1
535,187,31,0.119824011396252,1
535,188,31,0.118703124116138,1
535,189,31,0.117874454339386,1
535,190,31,0.117059256237825,1
535,191,31,0.114177657982312,1
536,181,31,0.066937282119339,1
536,182,31,0.0677591236284772,1
536,183,31,0.0705367669976031,1
536,184,31,0.0765080754720678,1
536,185,31,0.085345638818981,1
536,186,31,0.0918444338550453,1
536,187,31,0.0929344321783648,1
536,188,31,0.0926580895306736,1
536,189,31,0.0951215690439298,1
536,190,31,0.0994961662801243,1
536,191,31,0.101216519998713,1
536,192,31,0.0988746437284938,1
537,183,31,0.0486726772059071,1
537,184,31,0.0537518684728232,1
537,185,31,0.0606496203529422,1
537,186,31,0.0655266845001144,1
537,187,31,0.0653487913758356,1
537,188,31,0.0647524848886163,1
537,189,31,0.0671413040544612,1
537,190,31,0.0716699763545527,1
537,191,31,0.07390394057822,1
537,192,31,0.0739759031244674,1
537,193,31,0.0733358830153926,1
537,194,31,0.0727985642105792,1
537,195,31,0.0707442666121699,1
538,190,31,0.0488317319370485,1
538,191,31,0.0494433009310661,1
538,192,31,0.0485384110503415,1
538,193,31,0.048060261899533,1
538,194,31,0.0480498317496374,1
531,183,32,0.130443261555878,1
532,183,32,0.132413488275622,1
532,184,32,0.113712180409347,1
532,185,32,0.110133347863332,1
533,182,32,0.15321710535802,1
533,183,32,0.131342455436715,1
533,184,32,0.117796535833824,1
533,185,32,0.117251695536259,1
533,186,32,0.119861734397536,1
533,187,32,0.120422495765781,1
534,181,32,0.151355611001243,1
534,182,32,0.132675642915479,1
534,183,32,0.12245899480876,1
534,184,32,0.119165389745962,1
534,185,32,0.123740872073527,1
534,186,32,0.127304858047826,1
534,187,32,0.125896270781503,1
534,188,32,0.121639729786387,1
534,189,32,0.11423598132396,1
535,182,32,0.104958006269713,1
535,183,32,0.105408117352109,1
535,184,32,0.109769936138252,1
535,185,32,0.117437283459574,1
535,186,32,0.122036219904324,1
535,187,32,0.121331059739739,1
535,188,32,0.118335957421557,1
535,189,32,0.114769602928035,1
535,190,32,0.112302068047719,1
536,181,32,0.0755268672804759,1
536,182,32,0.0771037176185295,1
536,183,32,0.0818543432773244,1
536,184,32,0.0895483913202297,1
536,185,32,0.0977642703629801,1
536,186,32,0.10294121792817,1
536,187,32,0.101819152165321,1
536,188,32,0.10061255915059,1
536,189,32,0.10123938487453,1
536,190,32,0.104528657280213,1
536,191,32,0.105219687205726,1
537,181,32,0.0495312249861263,1
537,182,32,0.0520262289125534,1
537,183,32,0.0570773561151146,1
537,184,32,0.0646793149752528,1
537,185,32,0.0719593285273421,1
537,186,32,0.0757422118928596,1
537,187,32,0.0737191903019467,1
537,188,32,0.0737355966302234,1
537,189,32,0.0771911390853643,1
537,190,32,0.0827549005009337,1
537,191,32,0.0848520336360232,1
537,192,32,0.0843953773529448,1
537,193,32,0.08415661906151,1
537,194,32,0.0837410190372563,1
538,186,32,0.0489515732328582,1
538,188,32,0.049138634259593,1
538,189,32,0.0532583557198838,1
538,190,32,0.057915026264914,1
538,191,32,0.0592747122745955,1
538,192,32,0.0583813299311692,1
538,193,32,0.0577161804108256,1
538,194,32,0.0572928567031543,1
538,195,32,0.0571808777357899,1
532,183,33,0.123029380452678,1
532,184,33,0.105760760980039,1
532,185,33,0.103192234750803,1
533,183,33,0.124351430114218,1
533,184,33,0.110788930876765,1
533,185,33,0.109911342512743,1
533,186,33,0.110239653938314,1
534,182,33,0.13741257737779,1
534,183,33,0.122296260207509,1
534,184,33,0.115919351481413,1
534,185,33,0.116617902899678,1
534,186,33,0.117412546875884,1
534,187,33,0.113988962099626,1
535,183,33,0.113246182917528,1
535,184,33,0.114701204714375,1
535,185,33,0.117667214684246,1
535,186,33,0.118766057404957,1
535,187,33,0.11587552809891,1
535,188,33,0.111831021566142,1
535,189,33,0.106119897816766,1
536,182,33,0.0855012447550586,1
536,183,33,0.091770744022828,1
536,184,33,0.0997673097392771,1
536,185,33,0.106469814759151,1
536,186,33,0.109188458892119,1
536,187,33,0.106716071435834,1
536,188,33,0.104822665615183,1
536,189,33,0.103704770756917,1
536,190,33,0.104898053848989,1
537,181,33,0.0541230327657021,1
537,182,33,0.0570295409111899,1
537,183,33,0.0639148782844545,1
537,184,33,0.0730084381212453,1
537,185,33,0.0807598216599766,1
537,186,33,0.0833999176078815,1
537,187,33,0.0817184711501881,1
537,188,33,0.0825875732831401,1
537,189,33,0.0864683342613307,1
537,190,33,0.0918600660819174,1
537,191,33,0.092901001396063,1
538,185,33,0.0514127708800336,1
538,186,33,0.0533836677174111,1
538,187,33,0.0531646027967845,1
538,188,33,0.0554132691702631,1
538,189,33,0.0603399797911008,1
538,190,33,0.066188749168592,1
538,191,33,0.0684220317208732,1
538,192,33,0.0680126418384848,1
538,193,33,0.0671093868137117,1
538,194,33,0.0668236914035276,1
538,195,33,0.0661684954407969,1
532,183,34,0.115938900430317,1
532,184,34,0.100828337028685,1
532,185,34,0.0978577864341571,1
533,183,34,0.118923026683807,1
533,184,34,0.105564751572142,1
533,185,34,0.1034250428598,1
533,186,34,0.101533866913344,1
534,182,34,0.139511847957056,1
534,183,34,0.119749293280079,1
534,184,34,0.110779399031112,1
534,185,34,0.107771506709125,1
534,186,34,0.10558952281709,1
534,187,34,0.101701061262986,1
535,183,34,0.115697403899586,1
535,184,34,0.114812617547876,1
535,185,34,0.113503045938828,1
535,186,34,0.110585041809795,1
535,187,34,0.106502396340659,1
535,188,34,0.10192274310851,1
535,189,34,0.0963041244769847,1
536,182,34,0.0885143593730879,1
536,183,34,0.0958012993996855,1
536,184,34,0.104330880148213,1
536,185,34,0.108719526747214,1
536,186,34,0.10811426032508,1
536,187,34,0.105290118879793,1
536,188,34,0.103847863979245,1
536,189,34,0.10246509934933,1
536,190,34,0.101252509937151,1
537,181,34,0.056000690821958,1
537,182,34,0.0585156365248679,1
537,183,34,0.0660830265581021,1
537,184,34,0.0758258321751852,1
537,185,34,0.0827713357135912,1
537,186,34,0.0843330390823696,1
537,187,34,0.0846512178671662,1
537,188,34,0.0880484369806588,1
537,189,34,0.0927562964252875,1
537,190,34,0.0966897309602481,1
537,191,34,0.0961481950358425,1
538,185,34,0.0524375656022056,1
538,186,34,0.0545827045781328,1
538,187,34,0.055973077353943,1
538,188,34,0.059865501845088,1
538,189,34,0.0654112913989431,1
538,190,34,0.0713788680114125,1
538,191,34,0.0737419223096117,1
538,192,34,0.0746293602474758,1
538,193,34,0.0747512061193109,1
538,194,34,0.0756793941415636,1
538,195,34,0.0755893904110881,1
538,196,34,0.0743547044476216,1
539,192,34,0.0485609062060842,1
539,193,34,0.0488915688202491,1
539,194,34,0.0503728522960911,1
539,195,34,0.0510613461729721,1
539,196,34,0.0507322837535017,1
539,197,34,0.0500705310363365,1
532,183,35,0.112133556570314,1
532,184,35,0.097862777655154,1
532,185,35,0.0937604792533429,1
533,183,35,0.116893563875983,1
533,184,35,0.103390716661694,1
533,185,35,0.0993499073296635,1
533,186,35,0.0947179444839429,1
534,183,35,0.120033076544256,1
534,184,35,0.109910106261246,1
534,185,35,0.104678370802614,1
534,186,35,0.0992791174892753,1
534,187,35,0.0950889528011657,1
535,184,35,0.118022665873987,1
535,185,35,0.113868502678067,1
535,186,35,0.107526289870151,1
535,187,35,0.102854437694588,1
535,188,35,0.0980458584142188,1
536,183,35,0.103177619254134,1
536,184,35,0.110889067248015,1
536,185,35,0.112641794580569,1
536,186,35,0.109354971570375,1
536,187,35,0.107133947549292,1
536,188,35,0.106129244802383,1
536,189,35,0.103949883612121,1
536,190,35,0.099601316979875,1
537,181,35,0.0599029533331928,1
537,182,35,0.0632556096240354,1
537,183,35,0.0714409578763131,1
537,184,35,0.0802142765835203,1
537,185,35,0.0856539969143163,1
537,186,35,0.0868482331909541,1
537,187,35,0.0894130622194518,1
537,188,35,0.0950059737520931,1
537,189,35,0.0996057305132565,1
537,190,35,0.100713666037033,1
537,191,35,0.0987862228620844,1
538,184,35,0.0513807900936464,1
538,185,35,0.0566081582339064,1
538,186,35,0.0594049057324728,1
538,187,35,0.0620445164227808,1
538,188,35,0.067075771171373,1
538,189,35,0.0724206294188481,1
538,190,35,0.0768171210156654,1
538,191,35,0.078836485843973,1
538,192,35,0.0803335979604762,1
538,194,35,0.0823541066102622,1
538,195,35,0.0822933974187623,1
539,190,35,0.049572281244951,1
539,191,35,0.0516333089040795,1
539,192,35,0.0530957308792794,1
539,193,35,0.0544936829166034,1
539,194,35,0.0567929489483128,1
539,195,35,0.0581703179759009,1
539,196,35,0.0586103137481519,1
532,183,36,0.110922053210852,1
532,184,36,0.0980948232164981,1
532,185,36,0.0929404921214501,1
533,183,36,0.117802797967575,1
533,184,36,0.104898342692797,1
533,185,36,0.098945733966442,1
533,186,36,0.0923708170332996,1
534,184,36,0.113319884303497,1
534,185,36,0.107128875452029,1
534,186,36,0.100105603606841,1
534,187,36,0.0947049060744638,1
535,185,36,0.11888754511047,1
535,186,36,0.111870235001473,1
535,187,36,0.105959000262132,1
535,188,36,0.100195260724747,1
536,184,36,0.11573137193137,1
536,185,36,0.116648531897045,1
536,186,36,0.113466836479097,1
536,187,36,0.11166202483114,1
536,188,36,0.110963103692801,1
536,189,36,0.106305497293834,1
537,182,36,0.0677181886840516,1
537,183,36,0.0763307773660329,1
537,184,36,0.0845761762459289,1
537,185,36,0.0891711035386278,1
537,186,36,0.0908372297207615,1
537,187,36,0.0942413117631248,1
537,188,36,0.100521885302481,1
537,189,36,0.102959484410568,1
537,190,36,0.100253849802699,1
538,183,36,0.0499255141142487,1
538,184,36,0.0560610534008886,1
538,185,36,0.0610865023889463,1
538,186,36,0.0643821409121512,1
538,187,36,0.067461250563361,1
538,188,36,0.0727062959446514,1
538,189,36,0.0767509468993241,1
538,190,36,0.0783456420078166,1
538,191,36,0.0789714105634201,1
539,188,36,0.0483035203774916,1
539,189,36,0.0500005037436006,1
539,190,36,0.0516360240358717,1
539,191,36,0.0527403027970433,1
539,192,36,0.054192274403281,1
539,193,36,0.0569705416750316,1
539,194,36,0.0603935141024176,1
539,195,36,0.0627842396373933,1
539,196,36,0.0658129287135331,1
532,183,37,0.112041981529525,1
532,184,37,0.099556719495968,1
532,185,37,0.0938585532798053,1
533,183,37,0.120551955560387,1
533,184,37,0.107804758408266,1
533,185,37,0.100919080199309,1
533,186,37,0.09470603834219,1
534,183,37,0.126611089883017,1
534,184,37,0.117637047836971,1
534,185,37,0.11160990585448,1
534,186,37,0.105235215448827,1
534,187,37,0.0989692458523878,1
535,184,37,0.125501247990109,1
535,185,37,0.123072279534996,1
535,186,37,0.118566581871368,1
535,187,37,0.113035211400392,1
535,188,37,0.1060074104843,1
536,183,37,0.110211208600133,1
536,184,37,0.114808273337008,1
536,185,37,0.116220846647877,1
536,186,37,0.115865857608229,1
536,187,37,0.116139173172816,1
536,188,37,0.115346204490694,1
536,189,37,0.1091157626826,1
537,181,37,0.0705079115012151,1
537,182,37,0.074636506243278,1
537,183,37,0.081341893924353,1
537,184,37,0.087516658200077,1
537,185,37,0.0919439174392892,1
537,186,37,0.0956543472240862,1
537,187,37,0.100388947828431,1
537,188,37,0.105551568740759,1
537,189,37,0.105565953162382,1
537,190,37,0.100636417649105,1
538,181,37,0.0499326716638032,1
538,182,37,0.0523961222926785,1
538,183,37,0.0565052662927318,1
538,184,37,0.0617984272755069,1
538,185,37,0.0665670825647777,1
538,186,37,0.0709317146896071,1
538,187,37,0.0748429486895087,1
538,188,37,0.0797039011290881,1
538,189,37,0.082457119865836,1
538,190,37,0.0822978744977815,1
538,191,37,0.0811169077056688,1
539,186,37,0.0496889914738854,1
539,187,37,0.0517815204386803,1
539,188,37,0.054231308755452,1
539,189,37,0.0562479584519673,1
539,190,37,0.0569344708603275,1
539,191,37,0.0563696136868892,1
539,192,37,0.0575109915467202,1
539,193,37,0.0610212814571703,1
539,194,37,0.0652086212528408,1
539,195,37,0.0685715777138655,1
539,196,37,0.0737024662454816,1
540,195,37,0.0489895042016838,1
540,196,37,0.0530330575498873,1
540,197,37,0.0555853160958743,1
532,183,38,0.116215335508027,1
532,184,38,0.102686931393634,1
533,183,38,0.125984437465362,1
533,184,38,0.111183549286828,1
533,185,38,0.104065143845141,1
533,186,38,0.099466473136694,1
534,183,38,0.131694186318213,1
534,184,38,0.120955273945937,1
534,185,38,0.115618688185114,1
534,186,38,0.111272594055862,1
534,187,38,0.104572885044047,1
535,183,38,0.126789445157388,1
535,184,38,0.124272598862223,1
535,185,38,0.124461629803727,1
535,186,38,0.123154276515122,1
535,187,38,0.118742614841525,1
535,188,38,0.111373793372324,1
536,182,38,0.106522985127271,1
536,183,38,0.109859431503626,1
536,184,38,0.111634677099428,1
536,185,38,0.11512211946469,1
536,186,38,0.117255334968235,1
536,187,38,0.119560666719906,1
536,188,38,0.117802208726207,1
536,189,38,0.110573984868836,1
537,181,38,0.0780505880582635,1
537,182,38,0.0810524493215452,1
537,183,38,0.084931153731825,1
537,184,38,0.0891557774861919,1
537,185,38,0.0944719882048205,1
537,186,38,0.0995746971345585,1
537,187,38,0.105755238286436,1
537,188,38,0.108260149555467,1
537,189,38,0.10628474675469,1
537,190,38,0.100322906580241,1
538,181,38,0.0560675928246946,1
538,182,38,0.0590128291479172,1
538,183,38,0.0621369984331263,1
538,184,38,0.0660155295371216,1
538,185,38,0.0704522975144829,1
538,186,38,0.0752146040168607,1
538,187,38,0.0805992476104067,1
538,188,38,0.0845465639787648,1
538,189,38,0.086626331824136,1
538,190,38,0.0850661362200337,1
538,191,38,0.0824842769606348,1
539,185,38,0.049758446855882,1
539,186,38,0.052399443996467,1
539,187,38,0.0553623228994631,1
539,188,38,0.058895333263826,1
539,189,38,0.0617975145290746,1
539,190,38,0.0615280174796256,1
539,191,38,0.0594196714279218,1
539,192,38,0.0602656660562588,1
539,193,38,0.0645949668065318,1
539,194,38,0.0694329908246569,1
539,195,38,0.0743413309793256,1
539,196,38,0.0819349595840501,1
540,194,38,0.0505420050067492,1
540,195,38,0.0551944642090634,1
540,196,38,0.0611660037585743,1
540,197,38,0.0655149285571415,1
532,184,39,0.108446811977747,1
533,184,39,0.115687040183766,1
533,185,39,0.10635029119153,1
533,186,39,0.102966278016925,1
534,184,39,0.122856224366845,1
534,185,39,0.116737877063639,1
534,186,39,0.114464745619649,1
534,187,39,0.108973674636722,1
535,183,39,0.127075747139568,1
535,184,39,0.121017282934572,1
535,185,39,0.121424679794687,1
535,186,39,0.122508687497435,1
535,187,39,0.119487485252791,1
535,188,39,0.113965923917524,1
536,182,39,0.109985875768879,1
536,183,39,0.108898494370457,1
536,184,39,0.109194339752044,1
536,185,39,0.11321510332382,1
536,186,39,0.117153430872883,1
536,187,39,0.119912074096339,1
536,188,39,0.1183569505895,1
536,189,39,0.111519821247739,1
537,182,39,0.0864520723549579,1
537,183,39,0.0874589760916817,1
537,184,39,0.0906290137735516,1
537,185,39,0.0957670771853507,1
537,186,39,0.1019041646748,1
537,187,39,0.108230675933331,1
537,188,39,0.109381556754435,1
537,189,39,0.106216614277332,1
537,190,39,0.10118430813728,1
538,182,39,0.0649209732585168,1
538,183,39,0.0664499968388934,1
538,184,39,0.069574974886764,1
538,185,39,0.0740788874956604,1
538,186,39,0.0799938367663691,1
538,187,39,0.0865342195338643,1
538,188,39,0.0901827212062931,1
538,189,39,0.0908549416230489,1
538,190,39,0.0881315373441306,1
538,191,39,0.0851092086086361,1
539,184,39,0.0501613146450928,1
539,185,39,0.0526973459459639,1
539,186,39,0.0558356685777497,1
539,187,39,0.0595316099571531,1
539,188,39,0.0637413467016718,1
539,189,39,0.0664272128393429,1
539,190,39,0.0650530268705155,1
539,191,39,0.0623704419984997,1
539,192,39,0.0631480384131762,1
539,193,39,0.0677537511336542,1
539,194,39,0.0727586864344898,1
539,195,39,0.0791977139098674,1
540,193,39,0.0500931128452215,1
540,194,39,0.0545621677834061,1
540,195,39,0.0601133876008458,1
540,196,39,0.067598988621495,1
540,197,39,0.0729703858380205,1
540,198,39,0.0749000242259078,1
541,197,39,0.0487996413900144,1
541,198,39,0.0510195909121327,1
541,199,39,0.0539046668470901,1
532,184,40,0.114029746845271,1
532,185,40,0.106009755896018,1
533,184,40,0.119475954607988,1
533,185,40,0.107631740967461,1
533,186,40,0.105177654654831,1
534,185,40,0.114966813926172,1
534,186,40,0.114148588741506,1
534,187,40,0.110678927601045,1
535,184,40,0.117191188535424,1
535,185,40,0.116461164695874,1
535,186,40,0.118478288096234,1
535,187,40,0.116853772753035,1
535,188,40,0.113880922961798,1
536,182,40,0.112428096377889,1
536,183,40,0.107845323632618,1
536,184,40,0.107359777191895,1
536,185,40,0.110258983365924,1
536,186,40,0.11452217932237,1
536,187,40,0.117076448221258,1
536,188,40,0.11758261810985,1
536,189,40,0.112733519820139,1
537,183,40,0.0893460331254397,1
537,184,40,0.0921868061971739,1
537,185,40,0.0959716768080883,1
537,186,40,0.102533208719182,1
537,187,40,0.108815688627669,1
537,188,40,0.111842494442183,1
537,189,40,0.108322297189129,1
537,190,40,0.105019714860787,1
538,183,40,0.0688442173839421,1
538,184,40,0.0721488851645753,1
538,185,40,0.0761415269032358,1
538,186,40,0.0828180013191612,1
538,187,40,0.0902422057000483,1
538,188,40,0.0952623226314161,1
538,189,40,0.0942168582463659,1
538,190,40,0.0907137432160988,1
538,191,40,0.0870012222021341,1
539,183,40,0.0500577179250274,1
539,184,40,0.0527056299863684,1
539,185,40,0.055511776462437,1
539,186,40,0.0587815288035969,1
539,187,40,0.06275120168267,1
539,188,40,0.0671222750244108,1
539,189,40,0.0687978001840467,1
539,190,40,0.0668210687017538,1
539,191,40,0.0642919754291433,1
539,192,40,0.0655080251901378,1
539,193,40,0.070079856531974,1
539,194,40,0.0755730707359537,1
539,195,40,0.0823780171006626,1
540,192,40,0.0485738117474117,1
540,193,40,0.0529612394255437,1
540,194,40,0.0576651301562548,1
540,195,40,0.0631046425195092,1
540,196,40,0.07139094745945,1
540,197,40,0.0771458021613096,1
541,196,40,0.0503550999556706,1
541,197,40,0.0542254394492798,1
541,198,40,0.0581977350301266,1
542,200,40,0.0521091501928645,1
542,201,40,0.0556721772057222,1
543,202,40,0.0531310275925788,1
532,185,41,0.108929562410412,1
533,185,41,0.108916217826497,1
533,186,41,0.105720923642083,1
534,186,41,0.109986257042705,1
534,187,41,0.107847692151841,1
535,185,41,0.111652920474321,1
535,186,41,0.111981670942479,1
535,187,41,0.111217147598539,1
535,188,41,0.110037763670492,1
535,191,41,0.10448322792614,1
536,184,41,0.108033106768872,1
536,185,41,0.107763245776225,1
536,186,41,0.109677771856095,1
536,187,41,0.111640130470517,1
536,188,41,0.113195450391145,1
536,189,41,0.112670066612466,1
536,190,41,0.111584221863101,1
536,191,41,0.109980041123964,1
537,184,41,0.0958500389037948,1
537,185,41,0.0970780005834183,1
537,186,41,0.10211796686125,1
537,187,41,0.108245487843789,1
537,188,41,0.112433931022805,1
537,189,41,0.111340888285752,1
537,190,41,0.108608321881254,1
538,183,41,0.0753260110734859,1
538,184,41,0.0775388261535544,1
538,185,41,0.080046319686226,1
538,186,41,0.0857481599956225,1
538,187,41,0.0926989898138422,1
538,188,41,0.0974249019964514,1
538,189,41,0.0963808356154305,1
538,190,41,0.0927457594031831,1
538,191,41,0.0894756084575685,1
539,184,41,0.0584373194148514,1
539,185,41,0.0607300402458786,1
539,186,41,0.0633943701892486,1
539,187,41,0.0669493326829957,1
539,188,41,0.0703384872773777,1
539,189,41,0.0709258107221779,1
539,190,41,0.0689879345088953,1
539,191,41,0.0675688622123532,1
539,192,41,0.0693238194191032,1
539,194,41,0.0791024012302066,1
540,188,41,0.0496307259009986,1
540,189,41,0.0511814474282087,1
540,190,41,0.0505724606978318,1
540,191,41,0.0500634948011812,1
540,192,41,0.05225070098926,1
540,193,41,0.0567772185145461,1
540,194,41,0.0615024663563976,1
540,195,41,0.066753409928241,1
540,196,41,0.0743477259812278,1
540,197,41,0.0799038272590174,1
541,195,41,0.0501664791723742,1
541,196,41,0.0548047734743594,1
541,197,41,0.0594260779835763,1
541,198,41,0.0646995455955433,1
541,199,41,0.0699909735154722,1
542,198,41,0.0520965912641062,1
542,199,41,0.0573517288480373,1
542,200,41,0.0632570422893215,1
542,201,41,0.0683699069673378,1
543,199,41,0.0497805665146747,1
543,200,41,0.0557016854891156,1
543,201,41,0.0607380527731039,1
543,202,41,0.066723653239173,1
544,200,41,0.0508746953044441,1
544,201,41,0.0584972198436897,1
572,182,41,0.0502175005425642,1
533,185,42,0.111798555522158,1
533,186,42,0.106523366401097,1
533,187,42,0.104846362361165,1
534,185,42,0.111525378602599,1
534,186,42,0.10792729750524,1
534,187,42,0.105529616611375,1
534,188,42,0.104278703402793,1
534,191,42,0.103106829413746,1
535,184,42,0.114418403519144,1
535,185,42,0.109438701613347,1
535,186,42,0.107956470729816,1
535,187,42,0.107110377894585,1
535,188,42,0.107166274948248,1
535,189,42,0.10950065283322,1
535,190,42,0.112872176401581,1
535,191,42,0.11338724267945,1
535,192,42,0.109460099162621,1
536,184,42,0.108646865198952,1
536,185,42,0.106449422386329,1
536,186,42,0.106955754027453,1
536,187,42,0.108876865746138,1
536,188,42,0.1110126692902,1
536,189,42,0.114039498212219,1
536,190,42,0.115882402581533,1
536,191,42,0.115909288163153,1
536,192,42,0.11246224926971,1
537,184,42,0.0989003508273781,1
537,185,42,0.0993929797182659,1
537,186,42,0.103915545860263,1
537,187,42,0.109872741426284,1
537,188,42,0.113815771352536,1
537,189,42,0.115115244982067,1
537,190,42,0.11211230921982,1
537,191,42,0.108767139760473,1
538,184,42,0.0826811240155741,1
538,185,42,0.0848977807182848,1
538,186,42,0.0900613086001696,1
538,187,42,0.0956842367813058,1
538,188,42,0.0983375444449744,1
538,189,42,0.0975664008009616,1
538,190,42,0.0944340630128711,1
538,191,42,0.092345323678833,1
538,192,42,0.0924396947276808,1
539,185,42,0.0666934286231366,1
539,186,42,0.0689462485705698,1
539,187,42,0.0715076750190129,1
539,188,42,0.0730019449124484,1
539,189,42,0.072319557193662,1
539,190,42,0.0712994648486791,1
539,191,42,0.0713596598982013,1
539,192,42,0.0731096952064683,1
539,193,42,0.0762250547555429,1
540,185,42,0.0519844043292002,1
540,186,42,0.0518541126644284,1
540,187,42,0.0519802160939888,1
540,188,42,0.0531999341713409,1
540,189,42,0.0532205865035905,1
540,190,42,0.0528139233067468,1
540,191,42,0.0530796191716865,1
540,192,42,0.0555296732247613,1
540,193,42,0.0593240814582056,1
540,194,42,0.0637288975335604,1
540,195,42,0.0696246271373055,1
540,196,42,0.0768230307599707,1
540,197,42,0.0829895976484324,1
541,194,42,0.0497529761541644,1
541,195,42,0.0534962128186386,1
541,196,42,0.0588804693614823,1
541,197,42,0.0645539509858401,1
541,198,42,0.0716393473571855,1
541,199,42,0.0783469186974466,1
542,196,42,0.0480206787441275,1
542,197,42,0.0531624711294837,1
542,198,42,0.0604577818496282,1
542,199,42,0.0669971016719111,1
542,200,42,0.073922761640729,1
543,197,42,0.0481249860199597,1
543,198,42,0.0546511605605548,1
543,199,42,0.060588708970777,1
543,200,42,0.0677645250076809,1
543,201,42,0.0737939719637571,1
544,198,42,0.0483310356386119,1
544,199,42,0.0534203219966067,1
544,200,42,0.0615296985505864,1
545,200,42,0.0552029966551425,1
545,201,42,0.0631545605063538,1
546,200,42,0.0483907136577183,1
571,183,42,0.049268180707341,1
572,181,42,0.0542495867916025,1
534,184,43,0.122749178851716,1
534,185,43,0.111807844739013,1
534,186,43,0.106139851147001,1
534,187,43,0.102937520727432,1
534,188,43,0.101215433945996,1
534,191,43,0.10846149679693,1
535,184,43,0.115173649199981,1
535,185,43,0.108675899778501,1
535,186,43,0.105362121864173,1
535,187,43,0.103835085529193,1
535,188,43,0.104265867183979,1
535,189,43,0.109032702757261,1
535,190,43,0.116468801726149,1
535,191,43,0.119093744927903,1
535,192,43,0.114121425869831,1
536,185,43,0.105290095772288,1
536,186,43,0.105470345862037,1
536,187,43,0.106863843927847,1
536,188,43,0.109358010207232,1
536,189,43,0.113628057538796,1
536,190,43,0.116890617669144,1
536,191,43,0.117625366993388,1
536,192,43,0.114490013675946,1
536,193,43,0.106312729942778,1
537,185,43,0.10120468895635,1
537,186,43,0.1053219494674,1
537,187,43,0.109374370320499,1
537,188,43,0.112349646399721,1
537,189,43,0.114094390089432,1
537,190,43,0.11147171142313,1
537,191,43,0.108790351248859,1
537,192,43,0.107193125868611,1
538,185,43,0.0905850517460215,1
538,186,43,0.0944486958401685,1
538,187,43,0.0971261219617791,1
538,188,43,0.0977349584933759,1
538,189,43,0.097333812213259,1
538,190,43,0.0954229140116144,1
538,191,43,0.0950449503355025,1
538,192,43,0.0956627468020138,1
539,186,43,0.0754085626337231,1
539,187,43,0.0762307334248021,1
539,188,43,0.075971975588123,1
539,189,43,0.0752171920573776,1
539,190,43,0.0750917125304418,1
539,191,43,0.0767115081658224,1
539,192,43,0.0781905733212213,1
539,193,43,0.0796302286274993,1
540,186,43,0.0582387161895614,1
540,187,43,0.057942564633539,1
540,188,43,0.058011396112911,1
540,189,43,0.0575151971125602,1
540,190,43,0.0572242794063331,1
540,191,43,0.0584242174597347,1
540,192,43,0.0607338529841401,1
540,193,43,0.0636608054943361,1
540,194,43,0.0671639205246032,1
540,195,43,0.0728773319169357,1
540,196,43,0.0797241779643878,1
540,197,43,0.0863444318215849,1
541,192,43,0.0479591607899661,1
541,193,43,0.0509220599120288,1
541,194,43,0.0538536743612808,1
541,195,43,0.0584241423603447,1
541,196,43,0.0648043034677155,1
541,197,43,0.0717549484258983,1
541,198,43,0.0800062050582143,1
541,199,43,0.0867296223697652,1
542,195,43,0.0497175061345803,1
542,196,43,0.0561694333744092,1
542,197,43,0.0625077641215507,1
542,198,43,0.0697854611463023,1
542,199,43,0.0767443150454996,1
542,200,43,0.0836215474615205,1
543,196,43,0.0515101112432244,1
543,197,43,0.0577923485229128,1
543,198,43,0.0635362502675849,1
543,199,43,0.0702132561561165,1
543,200,43,0.0777540898896718,1
544,197,43,0.052436416003851,1
544,198,43,0.0567501827341465,1
544,199,43,0.062517994969219,1
544,200,43,0.0701576883843935,1
544,201,43,0.0762155171330131,1
545,198,43,0.0492175521647295,1
545,199,43,0.0550583552300047,1
545,200,43,0.0625985650609354,1
545,201,43,0.0700803591201993,1
546,199,43,0.0494047633902443,1
546,200,43,0.0563748590904369,1
546,201,43,0.0646386862052634,1
547,200,43,0.0509896609167801,1
571,181,43,0.0512921150446862,1
571,182,43,0.0564989059520865,1
534,183,44,0.128769099739015,1
534,184,44,0.124153976487282,1
534,185,44,0.114734664381057,1
534,186,44,0.10718926691534,1
534,187,44,0.102432887487896,1
534,188,44,0.099564460510014,1
534,191,44,0.11237237263051,1
535,184,44,0.116204370997087,1
535,185,44,0.109338934962172,1
535,186,44,0.104960421003945,1
535,187,44,0.10204100731713,1
535,188,44,0.102148734503645,1
535,189,44,0.107368939317475,1
535,190,44,0.116924620362185,1
535,191,44,0.121435990918196,1
535,192,44,0.116157231687672,1
536,185,44,0.104669659273374,1
536,186,44,0.104731633600752,1
536,187,44,0.104806964065797,1
536,188,44,0.107601158185103,1
536,189,44,0.111463935747827,1
536,190,44,0.115655406009948,1
536,191,44,0.117121403871487,1
536,192,44,0.114699691172822,1
537,185,44,0.102148226138544,1
537,186,44,0.104724897763157,1
537,187,44,0.105947007467236,1
537,188,44,0.108458862541404,1
537,189,44,0.109509861173809,1
537,190,44,0.108082129339913,1
537,191,44,0.106711542364929,1
538,186,44,0.096290046229798,1
538,187,44,0.0961738674734698,1
538,188,44,0.0962770424815759,1
538,189,44,0.0960410050988095,1
538,190,44,0.0950774048257343,1
538,191,44,0.0958284853788651,1
538,192,44,0.0971614302288309,1
539,187,44,0.0795709232169048,1
539,188,44,0.0785984554389335,1
539,189,44,0.0784106087570418,1
539,190,44,0.0788880617942737,1
539,191,44,0.0814754553010279,1
539,192,44,0.0830246921710665,1
539,193,44,0.083364204959499,1
539,196,44,0.0951889505273872,1
539,197,44,0.0990379560173606,1
540,188,44,0.0635750304372051,1
540,189,44,0.0634907515909979,1
540,190,44,0.0635344478822249,1
540,191,44,0.0652381526437388,1
540,192,44,0.0668734938528492,1
540,193,44,0.0687248093538439,1
540,194,44,0.0717698989813842,1
540,195,44,0.0772298383787183,1
540,196,44,0.083010284641939,1
540,197,44,0.0893190724444301,1
540,198,44,0.0983578674952833,1
541,188,44,0.0531358397304149,1
541,189,44,0.0531119350168907,1
541,190,44,0.052278765053615,1
541,191,44,0.0525037166110423,1
541,192,44,0.0537483792396263,1
541,193,44,0.0560591932467671,1
541,194,44,0.0594350148109862,1
541,195,44,0.0647155302118607,1
541,196,44,0.07124276480923,1
541,197,44,0.0789836864252468,1
541,198,44,0.0884522117394257,1
541,199,44,0.094649419179007,1
542,193,44,0.0486613198673888,1
542,194,44,0.05139617969172,1
542,195,44,0.0566207864851785,1
542,196,44,0.0644393897548349,1
542,197,44,0.0716276780673549,1
542,198,44,0.0788160588098933,1
542,199,44,0.0862280913127244,1
542,200,44,0.09565636913074,1
543,195,44,0.0521256836124165,1
543,196,44,0.0614811265758856,1
543,197,44,0.0683244371751316,1
543,198,44,0.0731112203017729,1
543,199,44,0.0801931389936737,1
543,200,44,0.0892691891188424,1
544,195,44,0.0485351355615623,1
544,196,44,0.0566372159209598,1
544,197,44,0.0625411371350909,1
544,198,44,0.0669146772029493,1
544,199,44,0.0730395523762094,1
544,200,44,0.0789512492656435,1
544,201,44,0.083721319889572,1
545,196,44,0.0492874408124377,1
545,197,44,0.0536782190787389,1
545,198,44,0.0585953689695421,1
545,199,44,0.0649690888600014,1
545,200,44,0.0708935757532399,1
545,201,44,0.076278785480649,1
546,198,44,0.0531535862939593,1
546,199,44,0.0592804082744831,1
546,200,44,0.0653350250799612,1
546,201,44,0.0736902134911594,1
547,198,44,0.0485778555607193,1
547,199,44,0.0552818683452697,1
547,200,44,0.0604877696137423,1
548,199,44,0.0517514691289284,1
570,182,44,0.05491382934239,1
534,189,45,0.0988591732541541,1
535,184,45,0.115001521398104,1
535,185,45,0.108841661462857,1
535,186,45,0.102910750683335,1
535,187,45,0.0995473956178558,1
535,188,45,0.0988772895377723,1
535,189,45,0.103313445166261,1
535,190,45,0.11220639142486,1
535,191,45,0.117657902359886,1
536,185,45,0.103835201066716,1
536,186,45,0.102761892138605,1
536,187,45,0.102184320060752,1
536,188,45,0.103694788314923,1
536,189,45,0.106869736341524,1
536,190,45,0.111343799831334,1
536,191,45,0.114742613362645,1
537,186,45,0.102640034713018,1
537,187,45,0.102247854144691,1
537,188,45,0.102974758471119,1
537,189,45,0.10332600409502,1
537,190,45,0.103168341591031,1
537,191,45,0.104652617488721,1
537,192,45,0.105025468629437,1
538,187,45,0.0958128473751169,1
538,188,45,0.0947785208072912,1
538,189,45,0.0945283127473196,1
538,190,45,0.0938975183094624,1
538,191,45,0.095329195749772,1
538,192,45,0.096545869413391,1
538,193,45,0.0967229306675037,1
539,188,45,0.0815748637858818,1
539,189,45,0.0821054351993475,1
539,190,45,0.0828555567910368,1
539,191,45,0.0849970390043586,1
539,192,45,0.0866759147521637,1
539,193,45,0.0869254584713776,1
539,194,45,0.0877318526136806,1
539,196,45,0.0941562992536461,1
540,189,45,0.0699526843803251,1
540,190,45,0.0703108507018581,1
540,191,45,0.0715838720154809,1
540,192,45,0.0728163454353805,1
540,193,45,0.0738396670541333,1
540,194,45,0.0764594803898624,1
540,195,45,0.0805896060041061,1
540,196,45,0.0851851283150488,1
540,197,45,0.0906971866890421,1
541,189,45,0.0613056655164675,1
541,190,45,0.0596504749608929,1
541,191,45,0.0592638459705503,1
541,192,45,0.0599337960749778,1
541,193,45,0.0614125608328166,1
541,194,45,0.0649223019400321,1
541,195,45,0.0702855133230477,1
541,196,45,0.077326647269303,1
541,197,45,0.0851258980038443,1
541,198,45,0.0932505428414984,1
542,189,45,0.0570292174061253,1
542,190,45,0.0548603759073393,1
542,191,45,0.0534758088920636,1
542,192,45,0.0534674555291452,1
542,193,45,0.0544874150059765,1
542,194,45,0.0575134409422094,1
542,195,45,0.0635716509646551,1
542,196,45,0.0724867919814371,1
542,197,45,0.0803727536270464,1
542,198,45,0.0863512138741894,1
542,199,45,0.0939922301940032,1
543,189,45,0.0540948011719387,1
543,190,45,0.0534841102630965,1
543,191,45,0.0517410014293378,1
543,192,45,0.0508229691553634,1
543,193,45,0.05129503814402,1
543,194,45,0.0541339337310042,1
543,195,45,0.0606331273715232,1
543,196,45,0.0705130702516204,1
543,197,45,0.0781003847307088,1
543,198,45,0.0822291181177995,1
543,199,45,0.0881218726303254,1
543,200,45,0.099709933805318,1
544,189,45,0.0528372041176464,1
544,190,45,0.0538875961780557,1
544,191,45,0.0522646983601806,1
544,192,45,0.0506702689879911,1
544,193,45,0.0508593634751321,1
544,194,45,0.053071444891929,1
544,195,45,0.057486486038076,1
544,196,45,0.0648655441318215,1
544,197,45,0.0711865731348824,1
544,198,45,0.0761278010454944,1
544,199,45,0.0817235663549557,1
544,200,45,0.086651391912891,1
545,190,45,0.0542861082026465,1
545,191,45,0.0517091881723591,1
545,192,45,0.0494617811578819,1
545,193,45,0.0493421651602422,1
545,194,45,0.0509434863456831,1
545,195,45,0.0531807896037673,1
545,196,45,0.0570618856407748,1
545,197,45,0.0612308087552671,1
545,198,45,0.0669670445852831,1
545,199,45,0.073142594516164,1
545,200,45,0.0779405154600298,1
545,201,45,0.082976241510765,1
546,190,45,0.0533895370235833,1
546,191,45,0.0497955690620461,1
546,194,45,0.0486450521841398,1
546,195,45,0.0499681185758826,1
546,196,45,0.051867699877142,1
546,197,45,0.0557848782826059,1
546,198,45,0.0629819416700034,1
546,199,45,0.0682868874801322,1
546,200,45,0.0725223255466589,1
547,190,45,0.0488503623626444,1
547,196,45,0.0480957088116125,1
547,197,45,0.0528690924740151,1
547,198,45,0.0615458853575692,1
547,199,45,0.066698027016555,1
547,200,45,0.0687040761453281,1
548,197,45,0.0490898254329699,1
548,198,45,0.0568564483709949,1
548,199,45,0.0634587708046107,1
549,198,45,0.0498734297988464,1
568,183,45,0.0483004990712632,1
568,184,45,0.0488744114980725,1
569,183,45,0.0532004945283278,1
535,189,46,0.0980105039321578,1
536,186,46,0.0984726540244585,1
536,187,46,0.0975801959812167,1
536,188,46,0.0975706525818107,1
536,189,46,0.1000080090611,1
536,190,46,0.104199202033165,1
536,191,46,0.108641966407974,1
537,187,46,0.0973618300626047,1
537,188,46,0.0963058517629547,1
537,189,46,0.0963996335704348,1
537,190,46,0.097023513087536,1
537,191,46,0.0996746370920185,1
537,192,46,0.0997944957184567,1
538,188,46,0.0914573080533536,1
538,189,46,0.0913031174519336,1
538,190,46,0.0907831697137147,1
538,191,46,0.0916838540285993,1
538,192,46,0.0922625179360451,1
538,193,46,0.0933334525680571,1
539,189,46,0.0844970677038794,1
539,190,46,0.0850496663461194,1
539,191,46,0.0855837558771627,1
539,192,46,0.0862643354337131,1
539,193,46,0.086827188031126,1
539,194,46,0.0878262236625284,1
540,190,46,0.0763860043020628,1
540,191,46,0.0772003069878203,1
540,192,46,0.0777180306287201,1
540,193,46,0.0780096531138379,1
540,194,46,0.079831373678297,1
540,196,46,0.0848197466751998,1
541,190,46,0.0682283330634377,1
541,191,46,0.0674280681867338,1
541,192,46,0.0674462075778566,1
541,193,46,0.0676623262916448,1
541,194,46,0.0702153358315319,1
541,195,46,0.074439745841481,1
541,196,46,0.0804864541035046,1
541,197,46,0.0873348483537659,1
542,190,46,0.0654942935555203,1
542,191,46,0.062547451260727,1
542,192,46,0.0615519221931499,1
542,193,46,0.0617832340912225,1
542,194,46,0.0642687350563768,1
542,195,46,0.069371415101734,1
542,196,46,0.0772247373970746,1
542,197,46,0.0850904684223934,1
542,198,46,0.0903547450243997,1
543,190,46,0.0664003099270949,1
543,191,46,0.0621712784162227,1
543,192,46,0.0599829457372939,1
543,193,46,0.0601876840050592,1
543,194,46,0.0628301658028157,1
543,195,46,0.067616157497424,1
543,196,46,0.0752499296145409,1
543,197,46,0.083021589988572,1
543,198,46,0.0879593806578725,1
543,199,46,0.0919372451473316,1
544,190,46,0.0672730745995285,1
544,191,46,0.0627344487418241,1
544,192,46,0.0599597920176697,1
544,193,46,0.0600966519906283,1
544,194,46,0.0625445281613932,1
544,195,46,0.0655976880849203,1
544,196,46,0.0700701744875402,1
544,197,46,0.0758231805890306,1
544,198,46,0.0814458950257492,1
544,199,46,0.0855142253957761,1
545,191,46,0.0620436498913578,1
545,192,46,0.0589252228210455,1
545,193,46,0.0583741146128532,1
545,194,46,0.0602603975452066,1
545,195,46,0.0621799552842057,1
545,196,46,0.0639128043859153,1
545,197,46,0.0672288699431999,1
545,198,46,0.0725001134578477,1
545,199,46,0.0775332110299329,1
545,200,46,0.0826784608756672,1
546,191,46,0.0611502271097984,1
546,192,46,0.0582874499167945,1
546,193,46,0.0574727890647154,1
546,194,46,0.0591549749625566,1
546,195,46,0.0608580442676936,1
546,196,46,0.0614560549333783,1
546,197,46,0.0652826345901228,1
546,198,46,0.0718039536663106,1
546,199,46,0.077388939324869,1
547,191,46,0.0586670715563625,1
547,192,46,0.0565205230226539,1
547,193,46,0.05591608269381,1
547,194,46,0.0577288375464784,1
547,195,46,0.0596979782135052,1
547,196,46,0.0612584684382913,1
547,197,46,0.0684988699505943,1
547,198,46,0.0776126373001709,1
547,199,46,0.0828778901942472,1
548,191,46,0.0548133463585715,1
548,192,46,0.0532894122060864,1
548,193,46,0.0531691723058221,1
548,194,46,0.0552238165168006,1
548,195,46,0.0575811170463507,1
548,196,46,0.0596236644786633,1
548,197,46,0.0659221867722291,1
548,198,46,0.0737930245560679,1
549,190,46,0.0531517781317231,1
549,191,46,0.0513706458991204,1
549,192,46,0.0507190373764811,1
549,193,46,0.0511974031601454,1
549,194,46,0.0533839450074665,1
549,195,46,0.055742088960935,1
549,196,46,0.0575970785551635,1
549,197,46,0.0601946740252053,1
550,190,46,0.050558301574379,1
550,191,46,0.0493546778739913,1
550,192,46,0.0494478357788468,1
550,193,46,0.0504347168628217,1
550,194,46,0.0525416360261155,1
550,195,46,0.0542903888678765,1
550,196,46,0.0559431531354665,1
550,197,46,0.0566221844892077,1
551,189,46,0.0485040848522358,1
551,190,46,0.0486021993168312,1
551,192,46,0.048631043259467,1
551,193,46,0.0495641705108311,1
551,194,46,0.0505090421514159,1
551,195,46,0.0506653182051274,1
551,196,46,0.052196409907167,1
552,195,46,0.0479631179501314,1
552,196,46,0.0503861391112447,1
553,185,46,0.0485074989860427,1
553,195,46,0.0482988237771786,1
553,196,46,0.0534567798620131,1
554,185,46,0.0509739709211465,1
554,195,46,0.048996499998706,1
554,196,46,0.0565589161415717,1
555,186,46,0.0482939654243333,1
556,185,46,0.0523308551458934,1
556,186,46,0.0486779514938355,1
557,186,46,0.0491549134965943,1
558,186,46,0.0502516938725183,1
559,186,46,0.0521705468326266,1
559,187,46,0.0481634657920199,1
560,186,46,0.0528189896271336,1
560,187,46,0.0489119380855673,1
561,186,46,0.0499485927344829,1
567,184,46,0.0524485416668977,1
568,183,46,0.0553108509329331,1
536,189,47,0.0921482166644668,1
537,188,47,0.089658787423528,1
537,189,47,0.0895330883752984,1
537,190,47,0.0908726997403456,1
537,191,47,0.092329766551351,1
538,189,47,0.0876259104818968,1
538,190,47,0.0873185171248792,1
538,191,47,0.0868084478448832,1
538,192,47,0.0867586742799424,1
539,190,47,0.0852839071204019,1
539,191,47,0.0842052083668392,1
539,192,47,0.0836514659031208,1
539,193,47,0.0846569716358154,1
540,190,47,0.0811760051487218,1
540,191,47,0.0813324082937086,1
540,192,47,0.0811577040050666,1
540,193,47,0.0813740595707772,1
541,190,47,0.0761737618721737,1
541,191,47,0.0753976674452971,1
541,192,47,0.0749293129880074,1
541,193,47,0.0745020032357901,1
541,194,47,0.075586530857392,1
541,196,47,0.0841979757178947,1
542,191,47,0.0727743186613619,1
542,192,47,0.0710930686174577,1
542,193,47,0.070859162901992,1
542,194,47,0.0725575587143206,1
542,195,47,0.0758476283289133,1
543,190,47,0.0791527524827627,1
543,191,47,0.0728524104732084,1
543,192,47,0.070040671981023,1
543,193,47,0.0702568542404489,1
543,194,47,0.0725407999965986,1
543,195,47,0.0747099303391923,1
543,196,47,0.0793799916831469,1
544,191,47,0.0736330281941134,1
544,192,47,0.0706332523831232,1
544,193,47,0.0709496287825599,1
544,194,47,0.0731719699314058,1
544,195,47,0.0742640825913976,1
544,196,47,0.0760121884230293,1
544,197,47,0.0801148276605334,1
545,191,47,0.0731427216074394,1
545,192,47,0.0699451051188114,1
545,193,47,0.0691844407281415,1
545,194,47,0.0707281202433202,1
545,195,47,0.0716848113725155,1
545,196,47,0.0717225170431711,1
545,197,47,0.0732468671307393,1
546,192,47,0.0701447539586853,1
546,193,47,0.0691501376375405,1
546,194,47,0.0709204555579834,1
546,195,47,0.0728738831218719,1
546,196,47,0.0731513464835369,1
546,197,47,0.0747635224192707,1
547,192,47,0.0691078277965904,1
547,193,47,0.0683595490283941,1
547,194,47,0.070644967887963,1
547,195,47,0.0742158745598945,1
547,196,47,0.0776859920735713,1
547,197,47,0.0836126915103767,1
548,191,47,0.0681732852105685,1
548,192,47,0.0662257385066045,1
548,193,47,0.0657180839608407,1
548,194,47,0.0682952119586697,1
548,195,47,0.072957295436656,1
548,196,47,0.0782773246704223,1
548,197,47,0.0839290967941942,1
549,191,47,0.0654277323884767,1
549,192,47,0.0641316209008673,1
549,193,47,0.0642745003787782,1
549,194,47,0.0667875108281767,1
549,195,47,0.0704408361921938,1
549,196,47,0.0739475271088001,1
549,197,47,0.0759833271497651,1
550,190,47,0.065561345757037,1
550,191,47,0.0635466024296524,1
550,192,47,0.0630564749261392,1
550,193,47,0.0638483460017917,1
550,194,47,0.0662503422221433,1
550,195,47,0.0681718698759109,1
550,196,47,0.0693441598000406,1
551,190,47,0.0633109463207122,1
551,191,47,0.0615919443911431,1
551,192,47,0.0620025474175238,1
551,193,47,0.0629713468791374,1
551,194,47,0.0641595347664423,1
551,195,47,0.0644723006182829,1
551,196,47,0.0654891694663719,1
552,189,47,0.0622376258388486,1
552,190,47,0.0600387214765585,1
552,191,47,0.058670058201334,1
552,192,47,0.0597742618631156,1
552,193,47,0.0607582082940044,1
552,194,47,0.061806509125246,1
552,195,47,0.0633261510587489,1
552,196,47,0.0666588713499848,1
553,185,47,0.0654489566314656,1
553,186,47,0.0629008978744423,1
553,187,47,0.0609783014985864,1
553,188,47,0.0602413973995369,1
553,189,47,0.0589449219687298,1
553,190,47,0.0572619157544748,1
553,191,47,0.0565903539016005,1
553,192,47,0.0580016562997158,1
553,193,47,0.0585996034197628,1
553,194,47,0.0602406983975223,1
553,195,47,0.0639580777643323,1
553,196,47,0.0699215412409802,1
554,186,47,0.0637916344085902,1
554,187,47,0.0602683291961657,1
554,188,47,0.058345779035319,1
554,189,47,0.0569232059518277,1
554,190,47,0.0562805400334745,1
554,191,47,0.0564863296926998,1
554,192,47,0.058166453245754,1
554,193,47,0.058221905479954,1
554,194,47,0.0595734056561256,1
554,195,47,0.0639142370512014,1
555,186,47,0.0642881453602534,1
555,187,47,0.0600865597879877,1
555,188,47,0.057807645690968,1
555,189,47,0.0564547763951479,1
555,190,47,0.055961090335924,1
555,191,47,0.0562670568045316,1
555,192,47,0.0584751637305347,1
555,193,47,0.058461385880908,1
555,194,47,0.0592602700842111,1
555,195,47,0.0618858083042086,1
556,186,47,0.0633791943355927,1
556,187,47,0.059615276454488,1
556,188,47,0.0576222137433085,1
556,189,47,0.0560960150553711,1
556,190,47,0.0547324412080382,1
556,191,47,0.0543830326307543,1
556,192,47,0.0563315151886552,1
556,193,47,0.0569316979597737,1
556,194,47,0.058182645829613,1
557,186,47,0.0627834713128649,1
557,187,47,0.0589196943505664,1
557,188,47,0.0570185764002501,1
557,189,47,0.0560613364678201,1
557,190,47,0.0549655150533377,1
557,191,47,0.0539858261801742,1
557,192,47,0.0550332142649836,1
557,193,47,0.0557340648799574,1
558,186,47,0.0629386555369833,1
558,187,47,0.0587883512943345,1
558,188,47,0.0567420951075312,1
558,189,47,0.0568437219128281,1
558,190,47,0.0563943040555704,1
558,191,47,0.0547621112439639,1
558,192,47,0.0545812199209612,1
559,186,47,0.0640812349870542,1
559,187,47,0.0600980384409052,1
559,188,47,0.0576588911300087,1
559,189,47,0.0580959522491736,1
559,190,47,0.0580899847361067,1
559,191,47,0.0563374133792082,1
559,192,47,0.0557007496351787,1
560,186,47,0.0637660428472291,1
560,187,47,0.0605065155768613,1
560,188,47,0.0576146229280425,1
560,189,47,0.056762787877914,1
560,190,47,0.0564729388937754,1
560,191,47,0.055308441975577,1
561,186,47,0.0590220548191348,1
561,187,47,0.056884818609786,1
561,188,47,0.0546707672782206,1
561,189,47,0.0536927190378848,1
561,190,47,0.0538067487962839,1
562,186,47,0.053654025521407,1
562,187,47,0.0521062617547876,1
562,188,47,0.0513584104754267,1
562,189,47,0.0514808686961341,1
563,185,47,0.0525203944524982,1
563,186,47,0.0502351315685855,1
563,187,47,0.0484259526022563,1
563,188,47,0.0480521020619658,1
564,184,47,0.0534813604700473,1
564,185,47,0.0512712316373904,1
564,186,47,0.0496593041073312,1
565,184,47,0.0525496254458362,1
566,184,47,0.0517811160573495,1
538,188,48,0.0830554367059568,1
538,189,48,0.0824786733907656,1
538,190,48,0.0825279501443572,1
539,189,48,0.0832396728402525,1
539,190,48,0.0822279454119403,1
539,191,48,0.0805549331934313,1
539,192,48,0.0798942376446021,1
540,190,48,0.0809435089910376,1
540,191,48,0.08028407280121,1
540,192,48,0.0800867751499307,1
541,190,48,0.0788029395241481,1
541,191,48,0.077798317653505,1
541,192,48,0.0773214769651454,1
542,190,48,0.0819938952745708,1
542,191,48,0.0774910456108866,1
542,192,48,0.075815907501953,1
542,193,48,0.0757059446643663,1
543,189,48,0.0938300039578534,1
543,190,48,0.0864676237055638,1
543,191,48,0.0790728813930609,1
543,192,48,0.0765334012971259,1
543,193,48,0.0770089133039702,1
543,194,48,0.0789060047716073,1
544,190,48,0.0884883865379006,1
544,191,48,0.0811898985358715,1
544,192,48,0.0789481990750343,1
544,193,48,0.079298427968732,1
544,194,48,0.080222115804461,1
544,195,48,0.079372707042317,1
545,190,48,0.0890530357437973,1
545,191,48,0.082488418980837,1
545,192,48,0.0801262369909371,1
545,193,48,0.0790831757863669,1
545,194,48,0.0790690744316755,1
545,195,48,0.07807615651212,1
546,191,48,0.0826308420855318,1
546,192,48,0.080696830602396,1
546,193,48,0.0793961207213682,1
546,194,48,0.0802885094420961,1
546,195,48,0.0807771349578094,1
546,196,48,0.080731434090557,1
547,191,48,0.0821167867609897,1
547,192,48,0.0803309752587024,1
547,193,48,0.0791390612862783,1
547,194,48,0.0810269444133263,1
547,195,48,0.0845244269893436,1
547,196,48,0.0895101195157111,1
548,191,48,0.080101436861609,1
548,192,48,0.077895738892962,1
548,193,48,0.0767290063236921,1
548,194,48,0.0788735502813755,1
548,195,48,0.084209182857633,1
548,196,48,0.0922232236244472,1
549,190,48,0.0807907395011515,1
549,191,48,0.0783386982026798,1
549,192,48,0.0764116536321855,1
549,193,48,0.0757069613945693,1
549,194,48,0.0774223701071708,1
549,195,48,0.0809091365779228,1
549,196,48,0.0857214477202875,1
550,190,48,0.0785365099959368,1
550,191,48,0.0763765013407899,1
550,192,48,0.0749212715764014,1
550,193,48,0.0744500691191678,1
550,194,48,0.0759612537059816,1
550,195,48,0.077177754063316,1
551,189,48,0.0789077782725865,1
551,190,48,0.0761363912603351,1
551,191,48,0.073994111838104,1
551,192,48,0.0736292501171088,1
551,193,48,0.0737062905374953,1
551,194,48,0.0745972408160609,1
551,195,48,0.0752460764381464,1
552,188,48,0.0784095515887056,1
552,189,48,0.076601481782598,1
552,190,48,0.0730771713937227,1
552,191,48,0.0712511355027768,1
552,192,48,0.0716578969065152,1
552,193,48,0.0719551865071398,1
552,194,48,0.0733285290520488,1
552,195,48,0.0763305925059959,1
553,184,48,0.082951747555873,1
553,185,48,0.0805472095100137,1
553,186,48,0.0782222537100485,1
553,187,48,0.0757285495807559,1
553,188,48,0.0747078275562723,1
553,189,48,0.0730668307854074,1
553,190,48,0.0714328067040602,1
553,191,48,0.070986866526247,1
553,192,48,0.071268876289445,1
553,193,48,0.0704443947479045,1
553,194,48,0.0718998960254722,1
553,195,48,0.076044527375738,1
554,185,48,0.0812130291479912,1
554,186,48,0.0780946945076974,1
554,187,48,0.0743399271984203,1
554,188,48,0.0719617894765836,1
554,189,48,0.070274629688374,1
554,190,48,0.070194787483053,1
554,191,48,0.0709319515415294,1
554,192,48,0.0713333924423301,1
554,193,48,0.0697185187054326,1
554,194,48,0.0709726900721657,1
555,186,48,0.0770791485642476,1
555,187,48,0.0730968532107785,1
555,188,48,0.070576251946114,1
555,189,48,0.0687293673091292,1
555,190,48,0.0682994521857666,1
555,191,48,0.0686797554967208,1
555,192,48,0.070029060459954,1
555,193,48,0.0690493715867905,1
555,194,48,0.0702840344427524,1
556,185,48,0.0777161300364655,1
556,186,48,0.0745146834789476,1
556,187,48,0.0706930892663238,1
556,188,48,0.0685766093729954,1
556,189,48,0.0668669890903001,1
556,190,48,0.065673307393773,1
556,191,48,0.0650119706116908,1
556,192,48,0.0661276182651329,1
557,185,48,0.0759650491136146,1
557,186,48,0.0724848220666687,1
557,187,48,0.0683962033075897,1
557,188,48,0.0662396261168781,1
557,189,48,0.0655392780901296,1
557,190,48,0.0651078378714624,1
557,191,48,0.0639415963366656,1
558,185,48,0.0749700110805106,1
558,186,48,0.0713455932047669,1
558,187,48,0.0672683375610824,1
558,188,48,0.0651651791441646,1
558,189,48,0.0652357610170112,1
558,190,48,0.0654691814748799,1
558,191,48,0.0642779087357089,1
559,185,48,0.0740097382880999,1
559,186,48,0.0703586485751543,1
559,187,48,0.066877658980556,1
559,188,48,0.064417564716726,1
559,189,48,0.0642039242828078,1
559,190,48,0.0646653176043322,1
559,191,48,0.0643634527177938,1
560,185,48,0.0699548160476259,1
560,186,48,0.0679567909998303,1
560,187,48,0.0659046250687217,1
560,188,48,0.0638132052641484,1
560,189,48,0.0628910078624671,1
560,190,48,0.0628057642779422,1
561,185,48,0.0639198521748229,1
561,186,48,0.0626221636000235,1
561,187,48,0.0620049159367468,1
561,188,48,0.0618900774156863,1
561,189,48,0.0622024157786915,1
562,185,48,0.0586616008546449,1
562,186,48,0.0574065802871172,1
562,187,48,0.0569803508107407,1
562,188,48,0.0586928075396275,1
563,185,48,0.0560677141390939,1
563,186,48,0.0545673380875638,1
541,189,49,0.0829408292599424,1
542,189,49,0.0902629273548119,1
542,190,49,0.0861407564990319,1
543,189,49,0.098770613742717,1
543,190,49,0.0910348393233531,1
543,191,49,0.0836357759074872,1
544,190,49,0.0945628295823383,1
544,191,49,0.087196700137425,1
545,190,49,0.0949916990911171,1
545,191,49,0.0893456518516136,1
546,190,49,0.094181243804878,1
546,191,49,0.090368696180311,1
546,192,49,0.0887974089739935,1
547,190,49,0.0933576519022652,1
547,191,49,0.0905842025452269,1
547,192,49,0.0886703465829916,1
