x,y,z,signal,cytoplasm.p
564,279,1,0.0721437090835416,1
564,280,1,0.0758457104060303,1
565,278,1,0.0753406034626503,1
565,279,1,0.0773679346031739,1
565,280,1,0.0798095948551973,1
565,281,1,0.0799093326219919,1
566,278,1,0.0799337803618746,1
566,279,1,0.0838868273913772,1
566,280,1,0.0884753770128023,1
566,281,1,0.0890071038014988,1
567,278,1,0.0841178446687659,1
567,279,1,0.088803815529648,1
567,280,1,0.0918959462597084,1
567,281,1,0.0923382989974301,1
567,293,1,0.0667745013030784,1
567,294,1,0.067078965783886,1
568,279,1,0.0928093165946267,1
568,280,1,0.0923964143715369,1
568,293,1,0.0677828030438314,1
569,280,1,0.105382814634556,1
560,279,2,0.0610526383409329,1
560,280,2,0.059553660293432,1
561,278,2,0.0658970053690749,1
561,279,2,0.0665734891204322,1
561,280,2,0.0669729947677215,1
561,281,2,0.0710012393941175,1
562,279,2,0.0708691626746142,1
562,280,2,0.0767897617302012,1
563,279,2,0.0742118596309676,1
563,280,2,0.0808979814300698,1
564,278,2,0.0760450761789726,1
564,279,2,0.0760874206811797,1
564,280,2,0.0782145935722686,1
564,281,2,0.0811520484433121,1
565,278,2,0.0815154023996312,1
565,279,2,0.0830750434236227,1
565,280,2,0.0848359623665634,1
565,281,2,0.0855672860032484,1
566,278,2,0.0865653395657046,1
566,279,2,0.089472546713207,1
566,280,2,0.0938147934429406,1
566,281,2,0.0951391711855703,1
566,282,2,0.0935903791349955,1
566,293,2,0.0685661763346617,1
566,294,2,0.0673353955394752,1
566,295,2,0.066180072300609,1
567,278,2,0.0907199706885925,1
567,279,2,0.0931531331557938,1
567,280,2,0.0956835782174242,1
567,281,2,0.0966587091353024,1
567,282,2,0.0940844753524264,1
567,292,2,0.071626366716468,1
567,293,2,0.0683078979787034,1
567,294,2,0.0694812624017977,1
567,295,2,0.070594322014723,1
568,279,2,0.097481318968969,1
568,280,2,0.096835805050672,1
568,281,2,0.0935057652299714,1
568,292,2,0.0695006842594267,1
568,293,2,0.06868310608489,1
568,294,2,0.0729444996559755,1
569,279,2,0.103750107680972,1
569,280,2,0.111908350830336,1
569,281,2,0.103092537422142,1
569,293,2,0.0707610022223874,1
570,279,2,0.113508626401193,1
570,280,2,0.133239315829306,1
570,293,2,0.0786495807928943,1
571,293,2,0.0849886914183165,1
559,279,3,0.058816132291758,1
559,280,3,0.0588105807137742,1
560,278,3,0.0657507002036049,1
560,279,3,0.0662821092641129,1
560,280,3,0.066426461845443,1
560,281,3,0.0700017300588705,1
561,277,3,0.0689667680346679,1
561,278,3,0.0714198260633427,1
561,279,3,0.0725205000537943,1
561,280,3,0.0752074522441824,1
561,281,3,0.0827252535725126,1
561,282,3,0.0789031047797781,1
562,278,3,0.0757947641352303,1
562,279,3,0.0779992258523804,1
562,280,3,0.0858449688862072,1
562,281,3,0.0964871416904119,1
563,278,3,0.0788345159292045,1
563,279,3,0.0802927612229453,1
563,280,3,0.0872281667818345,1
563,281,3,0.0968697153136945,1
564,278,3,0.0831145283721336,1
564,279,3,0.0823868210599209,1
564,280,3,0.0848292669671012,1
564,281,3,0.0900797483888524,1
565,278,3,0.0892903209318129,1
565,279,3,0.0894550947703465,1
565,280,3,0.0913593842256712,1
565,281,3,0.0950175159506483,1
565,282,3,0.0988263837051054,1
565,292,3,0.0843018150667585,1
565,293,3,0.0790685429590694,1
565,294,3,0.0726244202789242,1
565,295,3,0.0660605602867401,1
566,278,3,0.0946340064734288,1
566,279,3,0.095044332209754,1
566,280,3,0.0978101965284024,1
566,281,3,0.101200933986851,1
566,282,3,0.1023588048281,1
566,283,3,0.0990989367220396,1
566,292,3,0.0817440569346731,1
566,293,3,0.0775698884166331,1
566,294,3,0.0756145429298615,1
566,295,3,0.0737940875012802,1
566,296,3,0.0720834909265148,1
567,278,3,0.101013740091964,1
567,279,3,0.0987602384731448,1
567,280,3,0.0993285559953992,1
567,281,3,0.099368451102117,1
567,282,3,0.0973713388007538,1
567,283,3,0.0918718278017664,1
567,292,3,0.0788155735522963,1
567,293,3,0.0761680832029146,1
567,294,3,0.0776431796443958,1
567,295,3,0.0798146380680795,1
567,296,3,0.0790622634946903,1
568,278,3,0.112010486000734,1
568,279,3,0.104501979666135,1
568,280,3,0.103553220187899,1
568,281,3,0.0993341249040114,1
568,282,3,0.0943399981384594,1
568,292,3,0.0776275300868953,1
568,293,3,0.0761045780033563,1
568,294,3,0.0776821966659383,1
568,295,3,0.0801989678617129,1
569,278,3,0.108512587489634,1
569,279,3,0.105483505585916,1
569,280,3,0.115239921523217,1
569,281,3,0.110592147367464,1
569,282,3,0.100391027503846,1
569,293,3,0.0763929712147042,1
569,294,3,0.0760338632623582,1
570,278,3,0.0936868356361348,1
570,279,3,0.103621040713944,1
570,280,3,0.123729341428724,1
570,281,3,0.118270320554698,1
570,292,3,0.0762054538147532,1
570,293,3,0.0829531571136545,1
570,294,3,0.0783779405223923,1
571,279,3,0.0811417540500061,1
571,280,3,0.0952256048065828,1
571,292,3,0.077441803518552,1
571,293,3,0.0893107190815118,1
571,294,3,0.0809161265980688,1
572,293,3,0.0744369151721657,1
558,279,4,0.0543466383109856,1
558,280,4,0.0534701475534329,1
559,278,4,0.0622511957209338,1
559,279,4,0.0634287945942489,1
559,280,4,0.0642692665289829,1
559,281,4,0.0669027075155587,1
560,277,4,0.067457645792641,1
560,278,4,0.0684663403609725,1
560,279,4,0.0712834571248571,1
560,280,4,0.0741137856045053,1
560,281,4,0.0807746335704348,1
560,282,4,0.078253529717545,1
561,277,4,0.0739079497302707,1
561,278,4,0.075947932229571,1
561,279,4,0.0796824862491862,1
561,280,4,0.0856521367601948,1
561,281,4,0.0970755742954337,1
561,282,4,0.0935546722634891,1
561,283,4,0.0802727501239487,1
562,277,4,0.0818177583206427,1
562,278,4,0.0818324258091971,1
562,279,4,0.0848578740578146,1
562,280,4,0.0937321783370657,1
562,281,4,0.107010553474648,1
562,282,4,0.1043778808126,1
563,278,4,0.0850618728854323,1
563,279,4,0.0852488761434055,1
563,280,4,0.0914424268203815,1
563,281,4,0.102599434827409,1
563,282,4,0.10456849461817,1
564,278,4,0.0876476661974919,1
564,279,4,0.086245658793108,1
564,280,4,0.0898999084573097,1
564,281,4,0.0973618647238616,1
564,282,4,0.103695955243906,1
564,292,4,0.0912395140454808,1
564,293,4,0.0807461477941206,1
564,294,4,0.0716902531898524,1
565,277,4,0.0938032050293761,1
565,278,4,0.0938677673972705,1
565,279,4,0.0934881746420832,1
565,280,4,0.0962788159825551,1
565,281,4,0.103254428599474,1
565,282,4,0.110284436282258,1
565,283,4,0.110616202279768,1
565,284,4,0.0990995606246643,1
565,291,4,0.0966958486720949,1
565,292,4,0.101150998669377,1
565,293,4,0.0899353207081322,1
565,294,4,0.0805292318714232,1
565,295,4,0.0719068051693521,1
565,296,4,0.064745824150411,1
566,277,4,0.0993507276460773,1
566,278,4,0.100609428083715,1
566,279,4,0.0991672656131863,1
566,280,4,0.100305541290523,1
566,281,4,0.106760056570868,1
566,282,4,0.111049514206309,1
566,283,4,0.108309253002774,1
566,284,4,0.0972091703333655,1
566,291,4,0.088182911103766,1
566,292,4,0.0924888155056162,1
566,293,4,0.0879496235140488,1
566,294,4,0.0894635983320449,1
566,295,4,0.0889979878909281,1
566,296,4,0.0809931785722076,1
567,277,4,0.113648369035352,1
567,278,4,0.109622579581322,1
567,279,4,0.105092076011489,1
567,280,4,0.103791054179149,1
567,281,4,0.104935846172787,1
567,282,4,0.102547985968384,1
567,283,4,0.0973083592969255,1
567,284,4,0.0903829708412869,1
567,290,4,0.0806831856209208,1
567,291,4,0.0847683729155644,1
567,292,4,0.0894611142752987,1
567,293,4,0.0890208065517355,1
567,294,4,0.095235870315508,1
567,295,4,0.100129519874118,1
567,296,4,0.092742148855587,1
567,297,4,0.0827963033723277,1
568,277,4,0.130852611000133,1
568,278,4,0.118493631479298,1
568,279,4,0.111559138666841,1
568,280,4,0.114171153219763,1
568,281,4,0.110657830449332,1
568,282,4,0.101041342006227,1
568,283,4,0.0941054742972453,1
568,291,4,0.0894756142344447,1
568,292,4,0.0986012126263842,1
568,293,4,0.095040837199681,1
568,294,4,0.0914940547625676,1
568,295,4,0.0936810760906095,1
568,296,4,0.0889032817832634,1
569,277,4,0.12692589497214,1
569,278,4,0.111455952104983,1
569,279,4,0.107374219382279,1
569,280,4,0.119998704131141,1
569,281,4,0.118496762546173,1
569,282,4,0.105709185029738,1
569,292,4,0.102708294281651,1
569,293,4,0.0965767410395567,1
569,294,4,0.0832493664384385,1
569,295,4,0.0804014704784067,1
570,278,4,0.088049234189568,1
570,279,4,0.0920670053394973,1
570,280,4,0.109522142812512,1
570,281,4,0.110784216945824,1
570,291,4,0.0774433517213612,1
570,292,4,0.0922661920292789,1
570,293,4,0.092983281443121,1
570,294,4,0.0812584873864451,1
570,295,4,0.0756802260117297,1
571,279,4,0.0697797478157862,1
571,280,4,0.0810872434466193,1
571,292,4,0.0794564717465465,1
571,293,4,0.0890048681504273,1
571,294,4,0.0806309511067386,1
571,295,4,0.072483932427741,1
572,293,4,0.0712780615225295,1
572,294,4,0.0679242094183231,1
557,278,5,0.0511373698631555,1
557,279,5,0.0504706605862503,1
557,280,5,0.0492019834834951,1
558,277,5,0.0617442401771846,1
558,278,5,0.0576313700920122,1
558,279,5,0.0585648555096979,1
558,280,5,0.0590689746072556,1
558,281,5,0.0579578675784703,1
558,282,5,0.0555062306613294,1
559,277,5,0.0682942529972282,1
559,278,5,0.0653910145636434,1
559,279,5,0.0694250591736978,1
559,280,5,0.0728683835357736,1
559,281,5,0.0754625071032469,1
559,282,5,0.0722676057464112,1
560,276,5,0.076992940241405,1
560,277,5,0.0731007468253062,1
560,278,5,0.0738335204579057,1
560,279,5,0.0804438034268614,1
560,280,5,0.0875140412751793,1
560,281,5,0.094834458299088,1
560,282,5,0.0911007592571436,1
560,283,5,0.0797652053388318,1
561,276,5,0.0829203617877297,1
561,277,5,0.0816042623086283,1
561,278,5,0.0835462458808562,1
561,279,5,0.0910691539677064,1
561,280,5,0.100929443915129,1
561,281,5,0.112514714858939,1
561,282,5,0.108082510613739,1
561,283,5,0.0914100474295397,1
561,284,5,0.0820718715488942,1
562,276,5,0.0904340442033623,1
562,277,5,0.089682420623873,1
562,278,5,0.090114975779638,1
562,279,5,0.0939126248406044,1
562,280,5,0.102937659372459,1
562,281,5,0.114490672239827,1
562,282,5,0.112365498147887,1
562,283,5,0.0970699014030507,1
563,277,5,0.0964017998989925,1
563,278,5,0.0943732960526097,1
563,279,5,0.0938958487922539,1
563,280,5,0.0998667066703787,1
563,281,5,0.109656651596876,1
563,282,5,0.11173237562894,1
563,283,5,0.104838089874513,1
563,293,5,0.0748700653461744,1
564,277,5,0.0991286760804792,1
564,278,5,0.0977771990118122,1
564,279,5,0.0956123897725815,1
564,280,5,0.0990972152129458,1
564,281,5,0.106008115263191,1
564,282,5,0.111552599243035,1
564,283,5,0.110546359847069,1
564,284,5,0.100556049748054,1
564,292,5,0.104313295337201,1
564,293,5,0.0886192558902878,1
564,294,5,0.0774603184066248,1
564,295,5,0.0658854054017582,1
564,296,5,0.0579543321302642,1
565,276,5,0.101394078064175,1
565,277,5,0.106204471283657,1
565,278,5,0.107411306927186,1
565,279,5,0.103387319858516,1
565,280,5,0.104298321674211,1
565,281,5,0.11108366709813,1
565,282,5,0.117036287378237,1
565,283,5,0.116384748178112,1
565,284,5,0.10415326431399,1
565,285,5,0.0952894623955864,1
565,290,5,0.0974550226287171,1
565,291,5,0.109013500420926,1
565,292,5,0.10908621973795,1
565,293,5,0.0958718523881514,1
565,294,5,0.0875193675549931,1
565,295,5,0.078809438509821,1
565,296,5,0.0694502347999759,1
565,297,5,0.0648966988249187,1
566,276,5,0.109465032614856,1
566,277,5,0.116921084913979,1
566,278,5,0.117610601297939,1
566,279,5,0.107823648793289,1
566,280,5,0.104294809333509,1
566,281,5,0.110430105991351,1
566,282,5,0.113675924734606,1
566,283,5,0.111352915741904,1
566,284,5,0.1033276562816,1
566,285,5,0.0978941807539258,1
566,290,5,0.0901758987155555,1
566,291,5,0.0950634710004514,1
566,292,5,0.0970885029442658,1
566,293,5,0.0954870084525403,1
566,294,5,0.100735190677582,1
566,295,5,0.100928762243742,1
566,296,5,0.0870944552063796,1
566,297,5,0.0777930087043197,1
567,276,5,0.126025164442246,1
567,277,5,0.132715410930922,1
567,278,5,0.127046308178689,1
567,279,5,0.11541518039197,1
567,280,5,0.110620708243168,1
567,281,5,0.109765314637329,1
567,282,5,0.103724342813326,1
567,283,5,0.0989927577383336,1
567,284,5,0.0959387832752688,1
567,285,5,0.0941899495572417,1
567,289,5,0.0868076968509832,1
567,290,5,0.0870215972443284,1
567,291,5,0.0905560171664728,1
567,292,5,0.0966180168196753,1
567,293,5,0.0993034034766257,1
567,294,5,0.109127050698605,1
567,295,5,0.114090565797418,1
567,296,5,0.100499424807995,1
567,297,5,0.0896522191153412,1
568,277,5,0.140898714169041,1
568,278,5,0.12554200962825,1
568,279,5,0.120575409677571,1
568,280,5,0.126199371919539,1
568,281,5,0.119749582123887,1
568,282,5,0.104242701910602,1
568,283,5,0.0964012742032625,1
568,284,5,0.0931876730983171,1
568,290,5,0.0828264759964788,1
568,291,5,0.0982406431243712,1
568,292,5,0.115383546218152,1
568,293,5,0.106757052595269,1
568,294,5,0.0982895617116413,1
568,295,5,0.0987579508301879,1
568,296,5,0.0930512406141938,1
568,297,5,0.0918368372629031,1
569,277,5,0.128179685065047,1
569,278,5,0.110593660909016,1
569,279,5,0.111364099774138,1
569,280,5,0.125872643358034,1
569,281,5,0.121000090951138,1
569,282,5,0.10620023105656,1
569,291,5,0.103425262381093,1
569,292,5,0.130681534589716,1
569,293,5,0.113601922951076,1
569,294,5,0.0888009733065804,1
569,295,5,0.0835381929154979,1
569,296,5,0.0842343527070349,1
570,277,5,0.08912467478498,1
570,278,5,0.0819142379292866,1
570,279,5,0.0858731658187137,1
570,280,5,0.0999363180280314,1
570,281,5,0.100937519987991,1
570,282,5,0.0968296006856828,1
570,291,5,0.0841017387380493,1
570,292,5,0.108867183701704,1
570,293,5,0.0994011251136427,1
570,294,5,0.0824851434920579,1
570,295,5,0.0792243510858124,1
570,296,5,0.081583552207617,1
571,278,5,0.0628722676762243,1
571,279,5,0.0646497084849648,1
571,280,5,0.0736925300184971,1
571,281,5,0.0824569407826752,1
571,291,5,0.0628946646250724,1
571,292,5,0.0799148726462234,1
571,293,5,0.0836656423572021,1
571,294,5,0.0775944112559058,1
571,295,5,0.074835895123725,1
572,279,5,0.0548727557529368,1
572,280,5,0.0605250766799433,1
572,292,5,0.0594387408961053,1
572,293,5,0.0666413096464774,1
572,294,5,0.065732260414922,1
556,278,6,0.0499636761581204,1
556,279,6,0.0487022952499474,1
557,277,6,0.0574951686829351,1
557,278,6,0.0554635453234293,1
557,279,6,0.0560496382936088,1
557,280,6,0.0556275103993014,1
557,281,6,0.0527752413440212,1
557,282,6,0.0496352954100362,1
558,276,6,0.068949073463009,1
558,277,6,0.0641977372484471,1
558,278,6,0.0621698746353174,1
558,279,6,0.0648910432631642,1
558,280,6,0.0670230687302223,1
558,281,6,0.0648654748093076,1
558,282,6,0.0623597778851198,1
558,283,6,0.0613588936533482,1
559,276,6,0.0773371380763982,1
559,277,6,0.072436105670064,1
559,278,6,0.0715272586291741,1
559,279,6,0.0778105588540748,1
559,280,6,0.0837578701849968,1
559,281,6,0.0846951972253248,1
559,282,6,0.0829718972998973,1
559,283,6,0.0798730018478609,1
560,275,6,0.0827340864161517,1
560,276,6,0.083272866770632,1
560,277,6,0.0807953898864553,1
560,278,6,0.0831527943997761,1
560,279,6,0.0924337329914902,1
560,280,6,0.101881357567745,1
560,281,6,0.106156615641599,1
560,282,6,0.105613970556972,1
560,283,6,0.0970630962429416,1
560,284,6,0.0860581876081662,1
561,275,6,0.0910990724093067,1
561,276,6,0.0910502982439406,1
561,277,6,0.089415476953684,1
561,278,6,0.09324872312551,1
561,279,6,0.102486878172429,1
561,280,6,0.11303580064176,1
561,281,6,0.120180560192461,1
561,282,6,0.118835541671334,1
561,283,6,0.105918458145284,1
561,284,6,0.0927489309081915,1
562,275,6,0.0986587965278848,1
562,276,6,0.0973164238160362,1
562,277,6,0.0954245257600613,1
562,278,6,0.0981126622100609,1
562,279,6,0.102745404934062,1
562,280,6,0.110967101291099,1
562,281,6,0.117482620383629,1
562,282,6,0.115962054149941,1
562,283,6,0.104178405279011,1
562,284,6,0.0958550763398009,1
563,276,6,0.0993656550940586,1
563,277,6,0.0988500573435835,1
563,278,6,0.100503214438752,1
563,279,6,0.101836251718736,1
563,280,6,0.107432022805074,1
563,281,6,0.114150437341875,1
563,282,6,0.115396370883213,1
563,283,6,0.109526960727225,1
563,284,6,0.10296555013053,1
563,292,6,0.095439996234401,1
563,293,6,0.0806460634147568,1
563,294,6,0.0708553443868544,1
564,276,6,0.0995894743837598,1
564,277,6,0.10141392741064,1
564,278,6,0.1037044356981,1
564,279,6,0.10366287685105,1
564,280,6,0.106697989813473,1
564,281,6,0.112979152594196,1
564,282,6,0.117930674898114,1
564,283,6,0.115043854346559,1
564,284,6,0.10592459318776,1
564,285,6,0.0971056256051855,1
564,290,6,0.10903054220558,1
564,291,6,0.119540667174662,1
564,292,6,0.109684750322488,1
564,293,6,0.0898348608318184,1
564,294,6,0.0786834448409076,1
564,295,6,0.0677747154172162,1
564,296,6,0.0602797154190648,1
565,275,6,0.0999187678782763,1
565,276,6,0.104066403204142,1
565,277,6,0.111375745956464,1
565,278,6,0.114591709803756,1
565,279,6,0.109657090639464,1
565,280,6,0.109927425335955,1
565,281,6,0.117268240509563,1
565,282,6,0.123595306348205,1
565,283,6,0.120669526543868,1
565,284,6,0.109332407092118,1
565,285,6,0.100729228941392,1
565,286,6,0.0947529581303108,1
565,287,6,0.0984706090103,1
565,288,6,0.10160239221828,1
565,289,6,0.100359220023743,1
565,290,6,0.108096421331517,1
565,291,6,0.116046454310548,1
565,292,6,0.107942155630707,1
565,293,6,0.0934386610365694,1
565,294,6,0.0876760422131592,1
565,295,6,0.0801991527217498,1
565,296,6,0.0724008436180215,1
565,297,6,0.0679774548858323,1
566,275,6,0.111095059097905,1
566,276,6,0.114282438961989,1
566,277,6,0.127010884374114,1
566,278,6,0.12996309916373,1
566,279,6,0.115117636608794,1
566,280,6,0.109833285362154,1
566,281,6,0.113964294838449,1
566,282,6,0.116951193992492,1
566,283,6,0.11423583112518,1
566,284,6,0.109556954268215,1
566,285,6,0.10430287385262,1
566,286,6,0.0970098565523086,1
566,289,6,0.0923949585987461,1
566,290,6,0.0957604568852785,1
566,291,6,0.0968274863490106,1
566,292,6,0.0966249895091929,1
566,293,6,0.0966571782631216,1
566,294,6,0.101767818843819,1
566,295,6,0.0994220374053193,1
566,296,6,0.0879122240178294,1
566,297,6,0.0814678529320096,1
567,275,6,0.132290891409887,1
567,276,6,0.128042622901423,1
567,277,6,0.138708700419152,1
567,278,6,0.138553868584479,1
567,279,6,0.122864231117194,1
567,280,6,0.117840613398877,1
567,281,6,0.11306459259251,1
567,282,6,0.105330545459117,1
567,283,6,0.100379912794126,1
567,284,6,0.100485005725115,1
567,285,6,0.0975472446796357,1
567,286,6,0.0903028051309012,1
567,289,6,0.0876920903751143,1
567,290,6,0.0902961617233244,1
567,291,6,0.0894028082642789,1
567,292,6,0.0965348471336897,1
567,293,6,0.100505929570544,1
567,294,6,0.109675403336872,1
567,295,6,0.110033835394708,1
567,296,6,0.0988823847425399,1
567,297,6,0.0926583379363483,1
567,298,6,0.0898708738777609,1
568,276,6,0.133789759696741,1
568,277,6,0.133682517767822,1
568,278,6,0.126471786291445,1
568,279,6,0.123644756408081,1
568,280,6,0.132480037888913,1
568,281,6,0.122251812922382,1
568,282,6,0.10500155236216,1
568,283,6,0.0963675661309053,1
568,284,6,0.0943407895704925,1
568,285,6,0.085390987296788,1
568,290,6,0.0831745385616188,1
568,291,6,0.0937610627178345,1
568,292,6,0.113446744503834,1
568,293,6,0.102468935195096,1
568,294,6,0.0938810542124242,1
568,295,6,0.0925485195206653,1
568,296,6,0.0898619428272272,1
568,297,6,0.0912964336062237,1
568,298,6,0.0997312273708207,1
569,276,6,0.113685063752681,1
569,277,6,0.111625769156399,1
569,278,6,0.102831746125056,1
569,279,6,0.108650365985901,1
569,280,6,0.124301460135488,1
569,281,6,0.115710621392225,1
569,282,6,0.10314530340893,1
569,283,6,0.100968622689203,1
569,284,6,0.0988832743814676,1
569,290,6,0.0720179984815597,1
569,291,6,0.0998550489343004,1
569,292,6,0.133591092925813,1
569,293,6,0.111712953771311,1
569,294,6,0.0867952187984911,1
569,295,6,0.0831997950641631,1
569,296,6,0.0857612619507392,1
569,297,6,0.0864436843307826,1
570,277,6,0.0766936229572504,1
570,278,6,0.0733737215541997,1
570,279,6,0.078209348168721,1
570,280,6,0.0897444700506406,1
570,281,6,0.0891105618765364,1
570,282,6,0.0911457495686291,1
570,283,6,0.0972357093024159,1
570,290,6,0.0585499916073543,1
570,291,6,0.0806818107243962,1
570,292,6,0.109862377710464,1
570,293,6,0.0950066554234792,1
570,294,6,0.0800898137867876,1
570,295,6,0.0812762801649987,1
570,296,6,0.0840635304791683,1
571,277,6,0.0594515540074144,1
571,278,6,0.0584989702371643,1
571,279,6,0.0594090073145419,1
571,280,6,0.066243265548855,1
571,281,6,0.0733609142197668,1
571,282,6,0.0826742726404557,1
571,291,6,0.0579481970877889,1
571,292,6,0.0732461334674678,1
571,293,6,0.0726282561246903,1
571,294,6,0.0711331370304601,1
571,295,6,0.0745668833318729,1
571,296,6,0.0819221002577319,1
572,278,6,0.053401622248497,1
572,279,6,0.0538053970072639,1
572,280,6,0.0590697082705271,1
572,281,6,0.067455317711551,1
572,292,6,0.0542906603810557,1
572,293,6,0.0599895487067377,1
572,294,6,0.0622423802079232,1
572,295,6,0.0668143733022916,1
556,277,7,0.0572676637462478,1
556,278,7,0.0551636734591639,1
556,279,7,0.0527919769542386,1
556,280,7,0.0503254183659926,1
557,276,7,0.0644791577702774,1
557,277,7,0.0641043887066785,1
557,278,7,0.062165466878812,1
557,279,7,0.0614321328892256,1
557,280,7,0.0606449641907622,1
557,281,7,0.058492944955336,1
557,282,7,0.0544987665676187,1
557,283,7,0.0528039697491338,1
558,275,7,0.078381348879323,1
558,276,7,0.0733485285972931,1
558,277,7,0.0706035419090644,1
558,278,7,0.0695503885018536,1
558,279,7,0.0714841573561909,1
558,280,7,0.0733401867881271,1
558,281,7,0.0718198342988573,1
558,282,7,0.0693523340797982,1
558,283,7,0.0691001734356866,1
559,275,7,0.087179005565766,1
559,276,7,0.0844424357860933,1
559,277,7,0.0818688085752134,1
559,278,7,0.0824224239476565,1
559,279,7,0.0873161312750277,1
559,280,7,0.0923410256829747,1
559,281,7,0.0919854242944539,1
559,282,7,0.0922425761595623,1
559,283,7,0.0924046290894275,1
560,274,7,0.0916742470835556,1
560,275,7,0.0938639026671236,1
560,276,7,0.0937399020204832,1
560,277,7,0.093541177480794,1
560,278,7,0.0971588768495709,1
560,279,7,0.104567570317985,1
560,280,7,0.112122153016786,1
560,281,7,0.113090958255276,1
560,282,7,0.117064443872611,1
560,283,7,0.116189940360455,1
560,284,7,0.0998228948416286,1
561,274,7,0.100065962682674,1
561,275,7,0.103696405840246,1
561,276,7,0.102131126585129,1
561,277,7,0.102223221544772,1
561,278,7,0.108281304475942,1
561,279,7,0.117061670972057,1
561,280,7,0.123429972152684,1
561,281,7,0.123188833788274,1
561,282,7,0.123551067030619,1
561,283,7,0.118792434621475,1
561,284,7,0.103909665000338,1
561,285,7,0.0894673417477925,1
562,275,7,0.107412670269959,1
562,276,7,0.104759639896345,1
562,277,7,0.1057144997558,1
562,278,7,0.115717391891078,1
562,279,7,0.125509636014284,1
562,280,7,0.12598803068233,1
562,281,7,0.121579835134425,1
562,282,7,0.117714943235028,1
562,283,7,0.109949400572844,1
562,284,7,0.102743706532473,1
562,285,7,0.0945203926501128,1
563,276,7,0.104056732713461,1
563,277,7,0.10774739402806,1
563,278,7,0.119257854425679,1
563,279,7,0.128661661396307,1
563,280,7,0.125479492274514,1
563,281,7,0.121699474239569,1
563,282,7,0.119707029654138,1
563,283,7,0.112697541435453,1
563,284,7,0.107478191599294,1
563,285,7,0.0999035284789827,1
563,290,7,0.105669070401727,1
563,291,7,0.11495914223464,1
563,292,7,0.104842688267932,1
563,293,7,0.0870648429392154,1
564,276,7,0.10344527348009,1
564,277,7,0.107868211615939,1
564,278,7,0.114926572206885,1
564,279,7,0.120829303384528,1
564,280,7,0.119479767346249,1
564,281,7,0.122758629821104,1
564,282,7,0.1260795132931,1
564,283,7,0.118524040955371,1
564,284,7,0.110300403567947,1
564,285,7,0.10050230169232,1
564,286,7,0.0979879972226628,1
564,287,7,0.104243152506942,1
564,288,7,0.113837896788205,1
564,289,7,0.111457500307792,1
564,290,7,0.120584456265628,1
564,291,7,0.129641558237012,1
564,292,7,0.112437582008534,1
564,293,7,0.0915177168472934,1
564,294,7,0.0798064926727027,1
564,295,7,0.0709872766844539,1
564,296,7,0.0640873931370342,1
565,276,7,0.1081246240409,1
565,277,7,0.116594102169924,1
565,278,7,0.121021476946659,1
565,279,7,0.120069320665245,1
565,280,7,0.120188358975269,1
565,281,7,0.126323285913037,1
565,282,7,0.130927594852609,1
565,283,7,0.12214735544777,1
565,284,7,0.112397213197971,1
565,285,7,0.103565478719097,1
565,286,7,0.100041341636507,1
565,287,7,0.10225034975519,1
565,288,7,0.106858864260602,1
565,289,7,0.107529132093218,1
565,290,7,0.11548192641905,1
565,291,7,0.119831024523902,1
565,292,7,0.106231333757772,1
565,293,7,0.0940181048222959,1
565,294,7,0.0878980706712527,1
565,295,7,0.081985790317327,1
565,296,7,0.0760862133140635,1
565,297,7,0.0711027448850152,1
566,275,7,0.113607410983422,1
566,276,7,0.119367199137517,1
566,277,7,0.135479727046761,1
566,278,7,0.144581981082163,1
566,279,7,0.134486716697187,1
566,280,7,0.126501618079903,1
566,281,7,0.122414050712284,1
566,282,7,0.12146099323819,1
566,283,7,0.114261226272752,1
566,284,7,0.11040962118851,1
566,285,7,0.105226099538257,1
566,286,7,0.0997532603764712,1
566,287,7,0.0986260647475976,1
566,288,7,0.100812000022923,1
566,289,7,0.102521343015563,1
566,290,7,0.102777431935459,1
566,291,7,0.100404684039074,1
566,292,7,0.098795939567775,1
566,293,7,0.101057910087036,1
566,294,7,0.0995748704408431,1
566,295,7,0.0943018360945877,1
566,296,7,0.0884943309434628,1
566,297,7,0.084716658320236,1
567,276,7,0.127624180654101,1
567,277,7,0.142078190527106,1
567,278,7,0.151014844630685,1
567,279,7,0.139342354410705,1
567,280,7,0.131873581430292,1
567,281,7,0.119972188269595,1
567,282,7,0.110382227241788,1
567,283,7,0.102403252113228,1
567,284,7,0.100642159864002,1
567,285,7,0.0969463917908834,1
567,286,7,0.0912344246175893,1
567,288,7,0.0928288828741595,1
567,289,7,0.0943954445957832,1
567,290,7,0.0935420844503501,1
567,291,7,0.0913015750260006,1
567,292,7,0.099046875514142,1
567,293,7,0.105422259144934,1
567,294,7,0.105853283428518,1
567,295,7,0.100769100940605,1
567,296,7,0.096172296163156,1
567,297,7,0.0951518052137185,1
567,298,7,0.0893922712421744,1
568,276,7,0.127732462420727,1
568,277,7,0.129925884527548,1
568,278,7,0.13135359325394,1
568,279,7,0.128441181141023,1
568,280,7,0.134787564853522,1
568,281,7,0.122832724034652,1
568,282,7,0.106855305704892,1
568,283,7,0.0968881319948727,1
568,284,7,0.0916405910030838,1
568,285,7,0.083956704485333,1
568,289,7,0.0802226126158102,1
568,290,7,0.0827963380335846,1
568,291,7,0.0903822314011393,1
568,292,7,0.106071083213267,1
568,293,7,0.0998643265974033,1
568,294,7,0.0906943444659745,1
568,295,7,0.0886088459594587,1
568,296,7,0.0898478934644213,1
568,297,7,0.0941715675373205,1
569,276,7,0.103804849359405,1
569,277,7,0.102393824251345,1
569,278,7,0.100495323225926,1
569,279,7,0.105253412608712,1
569,280,7,0.118324091717938,1
569,281,7,0.110589490004433,1
569,282,7,0.100540648596228,1
569,283,7,0.0985270606440746,1
569,284,7,0.0931891288711078,1
569,290,7,0.0710625782651181,1
569,291,7,0.0938640759734082,1
569,292,7,0.121320106782552,1
569,293,7,0.10549599519216,1
569,294,7,0.0869084744554855,1
569,295,7,0.0862376635965112,1
569,296,7,0.089126586930987,1
570,277,7,0.0734659436051183,1
570,278,7,0.0725162771573259,1
570,279,7,0.0760159838306623,1
570,280,7,0.0852505341068617,1
570,281,7,0.0855886546681411,1
570,282,7,0.0885015116005219,1
570,283,7,0.0946484255563085,1
570,290,7,0.0595184964482841,1
570,291,7,0.0780200341602862,1
570,292,7,0.102721916155621,1
570,293,7,0.0918228745532395,1
570,294,7,0.0815077191543467,1
570,295,7,0.0849491198166632,1
570,296,7,0.0870214123842915,1
571,278,7,0.0579809693062092,1
571,279,7,0.0588903304890768,1
571,280,7,0.0643948211553087,1
571,281,7,0.070129716750057,1
571,282,7,0.0765067641211809,1
571,291,7,0.0566028146234641,1
571,292,7,0.0687658598357925,1
571,293,7,0.0683002378409235,1
571,294,7,0.0703641828225096,1
571,295,7,0.076696615379098,1
572,279,7,0.0534982809403017,1
572,280,7,0.0574768964236608,1
572,281,7,0.0635708364251174,1
572,292,7,0.0525339989958403,1
572,293,7,0.0569798135612584,1
572,294,7,0.0620598424752167,1
555,277,8,0.0493442275050291,1
556,276,8,0.0610502871523384,1
556,277,8,0.0618677555662281,1
556,278,8,0.0586997109066313,1
556,279,8,0.0558050453572587,1
556,280,8,0.0541261349481967,1
556,281,8,0.0520228956550127,1
557,275,8,0.0740654158204699,1
557,276,8,0.0706844759439785,1
557,277,8,0.0706192261278218,1
557,278,8,0.0671829437777775,1
557,279,8,0.065008596916017,1
557,280,8,0.0650040389607317,1
557,281,8,0.0649129953925484,1
557,282,8,0.0607884213562885,1
557,283,8,0.0577078097172788,1
558,274,8,0.0968042286456155,1
558,275,8,0.0882709218119685,1
558,276,8,0.0812748243922079,1
558,277,8,0.0797427563980983,1
558,278,8,0.076357870915194,1
558,279,8,0.0750022691569532,1
558,280,8,0.0766348547961382,1
558,281,8,0.0792946441148513,1
558,282,8,0.0783277856836254,1
558,283,8,0.0754040046784378,1
559,274,8,0.105325877743184,1
559,275,8,0.101359370592243,1
559,276,8,0.095634313017585,1
559,277,8,0.0945709807545913,1
559,278,8,0.0924885613230655,1
559,279,8,0.0918097090524851,1
559,280,8,0.0945004450967539,1
559,281,8,0.0980990172285857,1
559,282,8,0.100597781901389,1
559,283,8,0.0998024909150535,1
559,284,8,0.0847207945635621,1
560,273,8,0.104068101605731,1
560,274,8,0.107594526331279,1
560,275,8,0.106893132689946,1
560,276,8,0.102709380334367,1
560,277,8,0.103733204541346,1
560,278,8,0.105564832448408,1
560,279,8,0.10813749492097,1
560,280,8,0.112703352972864,1
560,281,8,0.11489655555839,1
560,282,8,0.120322521147064,1
560,283,8,0.123085231291332,1
560,284,8,0.105179029551356,1
560,285,8,0.0859326560893451,1
561,273,8,0.107355386766018,1
561,274,8,0.113044743246046,1
561,275,8,0.111652146372917,1
561,276,8,0.106727174591801,1
561,277,8,0.108316011947874,1
561,278,8,0.114104199225141,1
561,279,8,0.120438509266479,1
561,280,8,0.121924703087052,1
561,281,8,0.119348874886357,1
561,282,8,0.118720431637095,1
561,283,8,0.12019968165253,1
561,284,8,0.108166379301739,1
561,285,8,0.0938251340512558,1
561,286,8,0.0847998337830978,1
562,274,8,0.113473237257875,1
562,275,8,0.109923312200134,1
562,276,8,0.10638223731666,1
562,277,8,0.110472242526016,1
562,278,8,0.123028213523695,1
562,279,8,0.133581537972655,1
562,280,8,0.124664860306816,1
562,281,8,0.116448247600794,1
562,282,8,0.112069017309924,1
562,283,8,0.110769959615476,1
562,284,8,0.107047005563178,1
562,285,8,0.0998420971779636,1
562,286,8,0.0954187546607837,1
562,293,8,0.100187080668114,1
563,275,8,0.106501079212896,1
563,276,8,0.106292279801194,1
563,277,8,0.113513063042079,1
563,278,8,0.129251931047946,1
563,279,8,0.140964743863479,1
563,280,8,0.126906426899502,1
563,281,8,0.118816397103761,1
563,282,8,0.116552913042948,1
563,283,8,0.113929610474022,1
563,284,8,0.111189360824239,1
563,285,8,0.104868580226853,1
563,286,8,0.104248444125499,1
563,287,8,0.107023158618415,1
563,288,8,0.107942213399469,1
563,289,8,0.0998392434011437,1
563,290,8,0.105595472999528,1
563,291,8,0.118239414267276,1
563,292,8,0.1163258587026,1
563,293,8,0.100883829701018,1
563,294,8,0.0794555070082289,1
564,275,8,0.104299396173175,1
564,276,8,0.105356529848056,1
564,277,8,0.109112666276982,1
564,278,8,0.115048290987445,1
564,279,8,0.123024701182993,1
564,280,8,0.117781954998412,1
564,281,8,0.122587980899522,1
564,282,8,0.124925801802681,1
564,283,8,0.119377713052117,1
564,284,8,0.113495917273655,1
564,285,8,0.104789910727391,1
564,286,8,0.104216290032827,1
564,287,8,0.108343925813449,1
564,288,8,0.111869010303729,1
564,289,8,0.107141734778347,1
564,290,8,0.11750911313767,1
564,291,8,0.127689748198447,1
564,292,8,0.111666819638347,1
564,293,8,0.0912623558137927,1
564,294,8,0.0778646419686263,1
564,295,8,0.0698442293074145,1
565,275,8,0.106221154901989,1
565,276,8,0.110372660734878,1
565,277,8,0.115266714674818,1
565,278,8,0.117360647420519,1
565,279,8,0.120360197933339,1
565,280,8,0.119758501620668,1
565,281,8,0.126611528925605,1
565,282,8,0.127830472901552,1
565,283,8,0.119076425853194,1
565,284,8,0.111617669976031,1
565,285,8,0.104308257901195,1
565,286,8,0.102119376419032,1
565,287,8,0.103465145934059,1
565,288,8,0.106480444211274,1
565,289,8,0.105397245271188,1
565,290,8,0.110044199110527,1
565,291,8,0.113805095685404,1
565,292,8,0.100635481795168,1
565,293,8,0.0906067728003597,1
565,294,8,0.0831117728022083,1
565,295,8,0.0787506299105758,1
565,296,8,0.0759744423142406,1
566,275,8,0.115219841101707,1
566,276,8,0.120782348935151,1
566,277,8,0.132997784637318,1
566,278,8,0.144233993616413,1
566,279,8,0.14429916833318,1
566,280,8,0.132811803886423,1
566,281,8,0.125130441863552,1
566,282,8,0.119354108736153,1
566,283,8,0.111292997982438,1
566,284,8,0.10677708680177,1
566,285,8,0.102634754648213,1
566,286,8,0.0987171660845424,1
566,287,8,0.0982781119431045,1
566,288,8,0.101648468582482,1
566,289,8,0.104050401257196,1
566,290,8,0.100071277408736,1
566,291,8,0.0969218631747345,1
566,292,8,0.0944689957829728,1
566,293,8,0.097855302377411,1
566,294,8,0.0903488988257321,1
566,295,8,0.0848148594379737,1
566,296,8,0.0836720604666089,1
566,297,8,0.0828651926204613,1
567,275,8,0.129396618688093,1
567,276,8,0.125485107398136,1
567,277,8,0.137076340078137,1
567,278,8,0.149172136675159,1
567,279,8,0.146964110625422,1
567,280,8,0.135471581651384,1
567,281,8,0.124400348701488,1
567,282,8,0.113855412276703,1
567,283,8,0.104785462532753,1
567,284,8,0.0987195577112701,1
567,285,8,0.0950455164693655,1
567,286,8,0.0902190173191671,1
567,287,8,0.0894744299748332,1
567,288,8,0.0922147431702535,1
567,289,8,0.0951882919635057,1
567,290,8,0.0905989509100475,1
567,291,8,0.0885632895141102,1
567,292,8,0.0941105579482606,1
567,293,8,0.101827678834524,1
567,294,8,0.0940343320674118,1
567,295,8,0.087134858678199,1
567,296,8,0.0860703421555937,1
567,297,8,0.08827300726426,1
567,298,8,0.0823953188447431,1
568,276,8,0.121274873842268,1
568,277,8,0.123751848138219,1
568,278,8,0.126128743831683,1
568,279,8,0.123770218604388,1
568,280,8,0.12430011990022,1
568,281,8,0.119663160056626,1
568,282,8,0.107899314317151,1
568,283,8,0.0990227512793239,1
568,284,8,0.0905526723551797,1
568,285,8,0.0856963067552664,1
568,286,8,0.0809198584600641,1
568,289,8,0.0780954455015974,1
568,290,8,0.0778976048239596,1
568,291,8,0.0831075210213591,1
568,292,8,0.0907504783715605,1
568,293,8,0.0907239047412533,1
568,294,8,0.08224484277469,1
568,295,8,0.0816671204980573,1
568,296,8,0.0841434651145078,1
568,297,8,0.0902505012942051,1
569,276,8,0.0972162065685208,1
569,277,8,0.0972214173108115,1
569,278,8,0.094919257064149,1
569,279,8,0.0950451987411771,1
569,280,8,0.102043664680161,1
569,281,8,0.101864905024459,1
569,282,8,0.0958792583433805,1
569,283,8,0.0948650988502075,1
569,284,8,0.0884880861403406,1
569,290,8,0.06797999671134,1
569,291,8,0.0826960110254223,1
569,292,8,0.0966420601782273,1
569,293,8,0.090241027217313,1
569,294,8,0.0802648993492557,1
569,295,8,0.0824328627628663,1
569,296,8,0.0850230753851836,1
570,277,8,0.0738492451147962,1
570,278,8,0.072174569155955,1
570,279,8,0.0722767101032295,1
570,280,8,0.0770846597040982,1
570,281,8,0.0799166057090695,1
570,282,8,0.0822814219544956,1
570,290,8,0.0595567798065551,1
570,291,8,0.0708933735625746,1
570,292,8,0.0841133271516137,1
570,293,8,0.0805578447390128,1
570,294,8,0.0765267405589206,1
570,295,8,0.0811788415949132,1
571,278,8,0.0581943035656913,1
571,279,8,0.0582778660792554,1
571,280,8,0.0613107145062259,1
571,281,8,0.0662216080401546,1
571,282,8,0.0696493521672436,1
571,291,8,0.053429952049155,1
571,292,8,0.0595948725279129,1
571,293,8,0.0614253508366211,1
571,294,8,0.0659276805814514,1
571,295,8,0.0734151995249837,1
572,279,8,0.0533145820554883,1
572,280,8,0.0549705698199722,1
572,281,8,0.0591623866946619,1
572,292,8,0.0489635255896203,1
572,293,8,0.0527574081273346,1
572,294,8,0.0594413693747553,1
555,277,9,0.0509655135744574,1
556,276,9,0.0662852634384928,1
556,277,9,0.0657568987917178,1
556,278,9,0.0602662784051311,1
556,279,9,0.0570519436369142,1
556,280,9,0.054800550577891,1
556,281,9,0.0561517792408833,1
556,282,9,0.0545414807898995,1
556,283,9,0.0487587815449788,1
557,275,9,0.0805255173400563,1
557,276,9,0.0800072737803027,1
557,277,9,0.0784300999371846,1
557,278,9,0.0709967796457268,1
557,279,9,0.0675641887195448,1
557,280,9,0.0671716268773923,1
557,281,9,0.0730912843021663,1
557,282,9,0.0732996735556608,1
557,283,9,0.0651282533517898,1
558,274,9,0.109384063918685,1
558,275,9,0.101180495399019,1
558,276,9,0.0949111925450384,1
558,277,9,0.0921653451022627,1
558,278,9,0.0835517512438308,1
558,279,9,0.0790302364932938,1
558,280,9,0.0793550240244104,1
558,281,9,0.0863447495497734,1
558,282,9,0.0879744814121384,1
558,283,9,0.0794052828469481,1
558,284,9,0.0665978675378011,1
559,273,9,0.128088029147991,1
559,274,9,0.12486240636377,1
559,275,9,0.119630925087688,1
559,276,9,0.11130772901663,1
559,277,9,0.109588126291941,1
559,278,9,0.102235017925878,1
559,279,9,0.0957657311732068,1
559,280,9,0.0954757782052974,1
559,281,9,0.100197259523897,1
559,282,9,0.101480361486408,1
559,283,9,0.0960593351268454,1
559,284,9,0.0826994482667338,1
559,285,9,0.072305507830856,1
560,273,9,0.11596214657996,1
560,274,9,0.125117097279637,1
560,275,9,0.121652346483907,1
560,276,9,0.116401824624022,1
560,277,9,0.117419929723608,1
560,278,9,0.11315076047722,1
560,279,9,0.108512795457176,1
560,280,9,0.109811448770293,1
560,281,9,0.112207662337614,1
560,282,9,0.113093511634536,1
560,283,9,0.112685294458007,1
560,284,9,0.100464659567302,1
560,285,9,0.084954070599527,1
560,286,9,0.0757129751226454,1
561,274,9,0.123246787409848,1
561,275,9,0.117878706120235,1
561,276,9,0.117263965621209,1
561,277,9,0.120155534764963,1
561,278,9,0.119249015805163,1
561,279,9,0.11707650599002,1
561,280,9,0.115271266853227,1
561,281,9,0.113853956503912,1
561,282,9,0.110653786636024,1
561,283,9,0.111736350119734,1
561,284,9,0.104204343452941,1
561,285,9,0.092190902002367,1
561,286,9,0.0852579689464716,1
562,274,9,0.120117638457395,1
562,275,9,0.113071455521381,1
562,276,9,0.115201378205519,1
562,277,9,0.119874096912505,1
562,278,9,0.125583672459071,1
562,279,9,0.127556290805542,1
562,280,9,0.114795702854498,1
562,281,9,0.10870233476378,1
562,282,9,0.107168192871131,1
562,283,9,0.109959567874875,1
562,284,9,0.10714129573576,1
562,285,9,0.099450205453445,1
562,286,9,0.0974607417361093,1
562,287,9,0.0967450734338011,1
562,293,9,0.123427164590873,1
563,275,9,0.108879384464141,1
563,276,9,0.112059520125527,1
563,277,9,0.117435966331811,1
563,278,9,0.129643961417492,1
563,279,9,0.136790003434699,1
563,280,9,0.120657233351413,1
563,281,9,0.112575464488572,1
563,282,9,0.113029827351817,1
563,283,9,0.114267939002843,1
563,284,9,0.111285915532273,1
563,285,9,0.1053923002652,1
563,286,9,0.108102013347634,1
563,287,9,0.111926409345192,1
563,288,9,0.107276174240198,1
563,289,9,0.0984716488480077,1
563,290,9,0.103583595002716,1
563,291,9,0.112730735365832,1
563,292,9,0.115036529267596,1
563,293,9,0.106398123726083,1
563,294,9,0.0795581101055958,1
564,275,9,0.107328686044435,1
564,276,9,0.108736106381775,1
564,277,9,0.108276567437496,1
564,278,9,0.110796417708261,1
564,279,9,0.117275473158508,1
564,280,9,0.113128346197743,1
564,281,9,0.119159786176092,1
564,282,9,0.122173027885397,1
564,283,9,0.118652541788536,1
564,284,9,0.113208725652547,1
564,285,9,0.106600499251502,1
564,286,9,0.107392763154733,1
564,287,9,0.111711601982291,1
564,288,9,0.111511398562307,1
564,289,9,0.104798495165355,1
564,290,9,0.112046487492924,1
564,291,9,0.119833231290593,1
564,292,9,0.108417280586849,1
564,293,9,0.0891398737461406,1
564,294,9,0.0744521776789639,1
564,295,9,0.0677545252350588,1
564,296,9,0.0652417054225734,1
565,275,9,0.108540986612806,1
565,276,9,0.111566579283327,1
565,277,9,0.11315421504916,1
565,278,9,0.113031098264571,1
565,279,9,0.117044721617422,1
565,280,9,0.115961823074895,1
565,281,9,0.122814515321015,1
565,282,9,0.122576900851059,1
565,283,9,0.114848815453855,1
565,284,9,0.108977025224891,1
565,285,9,0.104881716843226,1
565,286,9,0.104372046167685,1
565,287,9,0.106761835848724,1
565,288,9,0.109910164030008,1
565,289,9,0.104997508548852,1
565,290,9,0.104060221946658,1
565,291,9,0.105259559204939,1
565,292,9,0.0972119663414239,1
565,293,9,0.0869740015616976,1
565,294,9,0.0786484543020443,1
565,295,9,0.074251286810717,1
565,296,9,0.0742976462418509,1
565,297,9,0.074965591770253,1
566,275,9,0.115737056377505,1
566,276,9,0.118858938019757,1
566,277,9,0.126289791585097,1
566,278,9,0.133582127214022,1
566,279,9,0.139423380875638,1
566,280,9,0.127175687097028,1
566,281,9,0.122274077003079,1
566,282,9,0.116329983392174,1
566,283,9,0.109674952740532,1
566,284,9,0.105465735914867,1
566,285,9,0.10171430186313,1
566,286,9,0.0987416022706728,1
566,287,9,0.0983854578557936,1
566,288,9,0.102064484541819,1
566,289,9,0.101570007050562,1
566,290,9,0.0961963221910795,1
566,291,9,0.0931693430702812,1
566,292,9,0.0927375100240355,1
566,293,9,0.0926557672264598,1
566,294,9,0.0833835112796049,1
566,295,9,0.0774220812633631,1
566,296,9,0.0783946299176005,1
566,297,9,0.0795691959309348,1
567,275,9,0.123579986072645,1
567,276,9,0.121197717884358,1
567,277,9,0.129165994238282,1
567,278,9,0.136322330648796,1
567,279,9,0.140666969005257,1
567,280,9,0.128134452124763,1
567,281,9,0.123356259212962,1
567,282,9,0.115691499932156,1
567,283,9,0.111153440208315,1
567,284,9,0.106911895983694,1
567,285,9,0.098144562120182,1
567,286,9,0.0907441989071814,1
567,287,9,0.0884151704095278,1
567,288,9,0.0901569332311427,1
567,289,9,0.0913189923076041,1
567,290,9,0.0872025290054641,1
567,291,9,0.086828054562549,1
567,292,9,0.0918468197048968,1
567,293,9,0.0953829322517542,1
567,294,9,0.0856150376615353,1
567,295,9,0.0792703581275009,1
567,296,9,0.079184773707283,1
567,297,9,0.0803704082153279,1
567,298,9,0.074979681571192,1
568,276,9,0.114077290536016,1
568,277,9,0.115472683417204,1
568,278,9,0.113178189085198,1
568,279,9,0.112408489660224,1
568,280,9,0.110736395965023,1
568,281,9,0.115369150242777,1
568,282,9,0.110826214835462,1
568,283,9,0.110106520050474,1
568,284,9,0.107006833166405,1
568,285,9,0.0958726958120698,1
568,286,9,0.085500996349384,1
568,287,9,0.0795910729609291,1
568,288,9,0.0751555585656932,1
568,289,9,0.0748042898342878,1
568,290,9,0.0752042403010409,1
568,291,9,0.0800144197761049,1
568,292,9,0.0841518011467977,1
568,293,9,0.0845675629235837,1
568,294,9,0.0784638137864179,1
568,295,9,0.0794013141330305,1
568,296,9,0.0821948150271985,1
568,297,9,0.0848801381385112,1
569,276,9,0.0928086811382498,1
569,277,9,0.0931057454407045,1
569,278,9,0.0880561606640764,1
569,279,9,0.0857027941871871,1
569,280,9,0.089345594082852,1
569,281,9,0.0950242229038628,1
569,282,9,0.0938050882910022,1
569,283,9,0.0964840972766789,1
569,284,9,0.097089750749515,1
569,285,9,0.0895623482530172,1
569,289,9,0.0620992407705854,1
569,290,9,0.0666786687045637,1
569,291,9,0.0756032837982378,1
569,292,9,0.0805322069626424,1
569,293,9,0.0789854657031022,1
569,294,9,0.0756430055986711,1
569,295,9,0.079960059371498,1
570,277,9,0.073085750054811,1
570,278,9,0.0701454645144522,1
570,279,9,0.0686445800978205,1
570,280,9,0.0718689088617835,1
570,281,9,0.0755919726747288,1
570,282,9,0.077736401094889,1
570,283,9,0.0811384554537223,1
570,290,9,0.059557305502285,1
570,291,9,0.0649275011285705,1
570,292,9,0.06938636565722,1
570,293,9,0.0703355757317962,1
570,294,9,0.0715536011844352,1
570,295,9,0.0774902541788536,1
571,277,9,0.0589217740259817,1
571,278,9,0.057442639548069,1
571,279,9,0.0567209170795516,1
571,280,9,0.058798362620709,1
571,281,9,0.0625051298660245,1
571,282,9,0.0647129652788484,1
571,291,9,0.0509832601380017,1
571,292,9,0.0530452871967048,1
571,293,9,0.0565166005237455,1
571,294,9,0.0625290750176819,1
571,295,9,0.0706966767064153,1
572,278,9,0.0530784522427035,1
572,279,9,0.0520824379175295,1
572,280,9,0.0529350643996911,1
572,281,9,0.0565174323939116,1
572,293,9,0.0510293249484518,1
572,294,9,0.0578356462096853,1
555,277,10,0.054477964036589,1
555,278,10,0.050877358444351,1
556,276,10,0.0743256294299397,1
556,277,10,0.069507986230885,1
556,278,10,0.0630468333198386,1
556,279,10,0.0587918751887883,1
556,280,10,0.0552054922656409,1
556,281,10,0.0611135843843551,1
556,282,10,0.0667672455466293,1
556,283,10,0.0569460015051304,1
557,275,10,0.0916165014295227,1
557,276,10,0.0930251464646073,1
557,277,10,0.0852351214012834,1
557,278,10,0.0753886150803642,1
557,279,10,0.0698903807710068,1
557,280,10,0.0677372697059875,1
557,281,10,0.081815366693915,1
557,282,10,0.091765671925565,1
557,283,10,0.0770332512832059,1
558,274,10,0.11652833821179,1
558,275,10,0.110831379362743,1
558,276,10,0.105746665402224,1
558,277,10,0.100262156950608,1
558,278,10,0.0901832931170323,1
558,279,10,0.0822502961457792,1
558,280,10,0.0788045570494711,1
558,281,10,0.0891885034896029,1
558,282,10,0.0968296353469398,1
558,283,10,0.0843140389366999,1
558,284,10,0.0679571953811611,1
559,274,10,0.136078973963943,1
559,275,10,0.127844360511826,1
559,276,10,0.118292804156689,1
559,277,10,0.117442228465562,1
559,278,10,0.108269369449808,1
559,279,10,0.0966123901423016,1
559,280,10,0.0917599008262874,1
559,281,10,0.0966344693629612,1
559,282,10,0.0986839606004106,1
559,283,10,0.0924717390597057,1
559,284,10,0.0824648262186251,1
559,285,10,0.0733101123708706,1
560,274,10,0.132462869012984,1
560,275,10,0.126299196339476,1
560,276,10,0.124193132153852,1
560,277,10,0.127999342545279,1
560,278,10,0.117773613189246,1
560,279,10,0.104628943850243,1
560,280,10,0.102515647015675,1
560,281,10,0.105599874979157,1
560,282,10,0.104914009580926,1
560,283,10,0.102650721933902,1
560,284,10,0.0952862966674542,1
560,285,10,0.0834562941422661,1
561,274,10,0.126170568415036,1
561,275,10,0.120578656281969,1
561,276,10,0.128428240938438,1
561,277,10,0.135037969327283,1
561,278,10,0.124489370363017,1
561,279,10,0.110948095368554,1
561,280,10,0.107234996666974,1
561,281,10,0.107196534225542,1
561,282,10,0.104560742050371,1
561,283,10,0.104907701232166,1
561,284,10,0.100018291900653,1
561,285,10,0.0896928016703214,1
561,286,10,0.0844541281834285,1
562,274,10,0.120380162817326,1
562,275,10,0.114117532255304,1
562,276,10,0.12229951836566,1
562,277,10,0.129367133512204,1
562,278,10,0.126088155499826,1
562,279,10,0.118039141524777,1
562,280,10,0.106822134882017,1
562,281,10,0.101797408003478,1
562,282,10,0.103081896416266,1
562,283,10,0.10824659700401,1
562,284,10,0.106823220934734,1
562,285,10,0.0982811505799614,1
562,286,10,0.09691320363738,1
562,293,10,0.119498010721143,1
563,275,10,0.109228527305121,1
563,276,10,0.113613730885934,1
563,277,10,0.11729736751913,1
563,278,10,0.12403795370661,1
563,279,10,0.126611967968192,1
563,280,10,0.114432972800803,1
563,281,10,0.106125755569186,1
563,282,10,0.108868050233127,1
563,283,10,0.112593603879695,1
563,284,10,0.112256673354903,1
563,285,10,0.106874380949951,1
563,291,10,0.104816623002726,1
563,292,10,0.0998129470608918,1
563,293,10,0.0943327654895149,1
563,294,10,0.0682073283417426,1
564,275,10,0.109567988101669,1
564,276,10,0.110392902908921,1
564,277,10,0.107527271939097,1
564,278,10,0.109796983472404,1
564,279,10,0.114338613305708,1
564,280,10,0.110896426988234,1
564,281,10,0.112339871925269,1
564,282,10,0.116558736134111,1
564,283,10,0.114537349399149,1
564,284,10,0.113436230589234,1
564,285,10,0.109292881705474,1
564,286,10,0.106983263511697,1
564,287,10,0.109353689103869,1
564,288,10,0.107522973943238,1
564,289,10,0.100868232135403,1
564,290,10,0.103668780818479,1
564,291,10,0.109693115239159,1
564,292,10,0.0974089347107624,1
564,293,10,0.0789981228387551,1
564,294,10,0.0647780822268536,1
564,295,10,0.0616365707594309,1
564,296,10,0.061658701971976,1
565,275,10,0.110731462512788,1
565,276,10,0.111741872813337,1
565,277,10,0.109872960947578,1
565,278,10,0.108856253852021,1
565,279,10,0.11144532265286,1
565,280,10,0.109443346221775,1
565,281,10,0.112964710403812,1
565,282,10,0.114615140813436,1
565,283,10,0.108102567927745,1
565,284,10,0.106374484748862,1
565,285,10,0.104709288643789,1
565,286,10,0.101600936445489,1
565,287,10,0.103826605075,1
565,288,10,0.108486915052007,1
565,289,10,0.102338943927884,1
565,290,10,0.0966489404377264,1
565,291,10,0.0976212233556607,1
565,292,10,0.0906006319810082,1
565,293,10,0.0780826035059076,1
565,294,10,0.068853194649485,1
565,295,10,0.0655238653845514,1
565,296,10,0.0679512798599796,1
565,297,10,0.0737608184715107,1
566,275,10,0.113526892883591,1
566,276,10,0.114106983679447,1
566,277,10,0.114784310854723,1
566,278,10,0.115010406233628,1
566,279,10,0.119035190511208,1
566,280,10,0.110400355079159,1
566,281,10,0.108833770250031,1
566,282,10,0.108090748439134,1
566,283,10,0.104441541987815,1
566,284,10,0.10398117117337,1
566,285,10,0.0992477143905035,1
566,286,10,0.094405207516483,1
566,287,10,0.0938696333282682,1
566,288,10,0.0978213343456269,1
566,289,10,0.0954672457592183,1
566,290,10,0.0905830702775008,1
566,291,10,0.0898849463480715,1
566,292,10,0.0885866800856567,1
566,293,10,0.0822934031956385,1
566,294,10,0.0725917809286555,1
566,295,10,0.0662814969152406,1
566,296,10,0.0677897237414636,1
566,297,10,0.072536005189391,1
567,276,10,0.112040410219211,1
567,277,10,0.112801710066258,1
567,278,10,0.112509157504079,1
567,279,10,0.11638979716787,1
567,280,10,0.107753598393049,1
567,281,10,0.107256290232476,1
567,282,10,0.10862747800258,1
567,283,10,0.1130249863296,1
567,284,10,0.116694746906275,1
567,285,10,0.100102253018672,1
567,286,10,0.088787773144569,1
567,287,10,0.0844995402068732,1
567,288,10,0.0852042844363747,1
567,289,10,0.0847637976296507,1
567,290,10,0.0831983335144962,1
567,291,10,0.0843653953657068,1
567,292,10,0.0869257877533183,1
567,293,10,0.0841963581925717,1
567,294,10,0.0759868799285997,1
567,295,10,0.069651056345709,1
567,296,10,0.0689341286843992,1
567,297,10,0.0698564474004797,1
568,276,10,0.102728212950629,1
568,277,10,0.0990653153028248,1
568,278,10,0.0934603358758983,1
568,279,10,0.0928651789870335,1
568,280,10,0.0914729749414826,1
568,281,10,0.0995455816787436,1
568,282,10,0.107179815945953,1
568,283,10,0.120314595272981,1
568,284,10,0.128110558964991,1
568,285,10,0.105773019511237,1
568,286,10,0.0881035194947849,1
568,287,10,0.07882953626196,1
568,288,10,0.0745434234378125,1
568,289,10,0.0732387968347525,1
568,290,10,0.0738755241244197,1
568,291,10,0.0764520339965002,1
568,292,10,0.0780332054379168,1
568,293,10,0.0765682820753423,1
568,294,10,0.0740743237634989,1
568,295,10,0.0740769464652727,1
568,296,10,0.0755691077989122,1
569,276,10,0.0867215405200261,1
569,277,10,0.0839155962346229,1
569,278,10,0.0776805964712437,1
569,279,10,0.0745956406213663,1
569,280,10,0.0759464013573903,1
569,281,10,0.0830715079754166,1
569,282,10,0.0893362413203591,1
569,283,10,0.0994829141262276,1
569,284,10,0.109141111615163,1
569,285,10,0.0964697937313222,1
569,290,10,0.0647399606211149,1
569,291,10,0.0684276468444946,1
569,292,10,0.0686317554327592,1
569,293,10,0.0685507174140743,1
569,294,10,0.0709063368726636,1
569,295,10,0.0760865888110135,1
570,277,10,0.0704737239481371,1
570,278,10,0.0663613333436855,1
570,279,10,0.064178685110892,1
570,280,10,0.0659517239400033,1
570,281,10,0.0698295271576032,1
570,282,10,0.0731208619080735,1
570,283,10,0.0773744220350946,1
570,290,10,0.058239715589136,1
570,291,10,0.0591241495514001,1
570,292,10,0.0588220593666917,1
570,293,10,0.0607725291699895,1
570,294,10,0.0668266780484991,1
570,295,10,0.0744025427590508,1
571,278,10,0.0568730568899369,1
571,279,10,0.055537437346312,1
571,280,10,0.0565200088806762,1
571,281,10,0.0593704813274725,1
571,282,10,0.0608271090958902,1
571,291,10,0.0492374592799554,1
571,292,10,0.0490334951135946,1
571,293,10,0.0529737405855405,1
571,294,10,0.0611368998565116,1
571,295,10,0.0698106078881996,1
572,279,10,0.0510977173852361,1
572,280,10,0.0512292972933903,1
572,281,10,0.0547651845420777,1
572,292,10,0.0487612482710965,1
572,293,10,0.0527210253613182,1
572,294,10,0.0594171064949095,1
555,277,11,0.058919908094984,1
555,278,11,0.0550775229050829,1
555,279,11,0.0506027892976391,1
556,276,11,0.0821444695515185,1
556,277,11,0.0796726020140871,1
556,278,11,0.0764686945073277,1
556,279,11,0.0666611127779324,1
556,280,11,0.0570330821362722,1
556,281,11,0.0614300936519433,1
556,282,11,0.0719211607065942,1
557,275,11,0.104338101243406,1
557,276,11,0.106659365619509,1
557,277,11,0.107188238631385,1
557,278,11,0.104572942812808,1
557,279,11,0.0867903835531504,1
557,280,11,0.0702554042445343,1
557,281,11,0.082305858140626,1
557,282,11,0.0996169723142517,1
557,283,11,0.0827507295963507,1
558,275,11,0.118019211302047,1
558,276,11,0.116847129345459,1
558,277,11,0.124132151449173,1
558,278,11,0.122866345453867,1
558,279,11,0.100696601144875,1
558,280,11,0.0793921173461937,1
558,281,11,0.0851642968996384,1
558,282,11,0.0977290429721945,1
558,283,11,0.08550873736343,1
559,275,11,0.13143731174316,1
559,276,11,0.126395312004922,1
559,277,11,0.133049776522701,1
559,278,11,0.126392562211873,1
559,279,11,0.10522351149774,1
559,280,11,0.0886054664869088,1
559,281,11,0.0904324728930485,1
559,282,11,0.0941770440159142,1
559,283,11,0.0900129445930103,1
559,284,11,0.0819593611089236,1
560,275,11,0.129401921860402,1
560,276,11,0.133541238484606,1
560,277,11,0.138376553147815,1
560,278,11,0.121548478250662,1
560,279,11,0.10355182218387,1
560,280,11,0.096308491795357,1
560,281,11,0.0993623276133941,1
560,282,11,0.0994402692264606,1
560,283,11,0.0975698784804061,1
560,284,11,0.0907731930485971,1
560,285,11,0.0806910537262422,1
561,275,11,0.125620205423867,1
561,276,11,0.1406541674477,1
561,277,11,0.146850583455249,1
561,278,11,0.125231710502527,1
561,279,11,0.108012853041077,1
561,280,11,0.101873108188597,1
561,281,11,0.103812463282175,1
561,282,11,0.103150236861165,1
561,283,11,0.103645627098855,1
561,284,11,0.096938673884342,1
561,285,11,0.0877451336519581,1
562,275,11,0.115923510832244,1
562,276,11,0.126464391889968,1
562,277,11,0.132749864220303,1
562,278,11,0.12175806331752,1
562,279,11,0.113439176796072,1
562,280,11,0.104696683500022,1
562,281,11,0.102981760045017,1
562,282,11,0.104640324296266,1
562,283,11,0.109872498797485,1
562,284,11,0.105509744157406,1
562,285,11,0.0975434088338696,1
563,276,11,0.114162383921761,1
563,277,11,0.11658982728157,1
563,278,11,0.117826494713558,1
563,279,11,0.12027278224338,1
563,280,11,0.111418922328837,1
563,281,11,0.106563654335393,1
563,282,11,0.108293586114645,1
563,283,11,0.112664486150101,1
563,284,11,0.111161088792343,1
563,292,11,0.0883428265894543,1
563,293,11,0.0807476093437875,1
564,276,11,0.113629409327816,1
564,277,11,0.109895548533339,1
564,278,11,0.111584106325578,1
564,279,11,0.11592715026422,1
564,280,11,0.111085492590995,1
564,281,11,0.109590517918668,1
564,282,11,0.111616780337103,1
564,283,11,0.111412117168728,1
564,284,11,0.111621933310633,1
564,291,11,0.101715156840801,1
564,292,11,0.0886965447163489,1
564,293,11,0.0714483465009138,1
564,294,11,0.0580115694191956,1
564,295,11,0.0563770947415084,1
565,276,11,0.115202822424558,1
565,277,11,0.110811044758682,1
565,278,11,0.109130736345591,1
565,279,11,0.110435547808688,1
565,280,11,0.107100568758876,1
565,281,11,0.107910521456889,1
565,282,11,0.109581344239336,1
565,283,11,0.104910451025215,1
565,284,11,0.103883391767591,1
565,285,11,0.104279558380463,1
565,286,11,0.0990289671980653,1
565,287,11,0.10241463255925,1
565,288,11,0.109862481694235,1
565,289,11,0.104134408590224,1
565,290,11,0.0952057092451093,1
565,291,11,0.0945978836668393,1
565,292,11,0.0851526564941886,1
565,293,11,0.0706634769991596,1
565,294,11,0.0601390080465877,1
565,295,11,0.0580560918037127,1
565,296,11,0.0601535657744952,1
566,276,11,0.1150846159847,1
566,277,11,0.111577185627946,1
566,278,11,0.107671485875399,1
566,279,11,0.107301500065256,1
566,280,11,0.102573693067268,1
566,281,11,0.10262307380463,1
566,282,11,0.104822030158806,1
566,283,11,0.102658566931719,1
566,284,11,0.102356517185144,1
566,285,11,0.0968842094959643,1
566,286,11,0.091443010284873,1
566,287,11,0.0908275014613186,1
566,288,11,0.0944275524734458,1
566,289,11,0.0920304665978248,1
566,290,11,0.0880080681700964,1
566,291,11,0.0881821543329899,1
566,292,11,0.0826722796181827,1
566,293,11,0.0734362389079356,1
566,294,11,0.0646235912278736,1
566,295,11,0.0598912320514769,1
566,296,11,0.0599941875382891,1
567,277,11,0.10690626930632,1
567,278,11,0.102267091142283,1
567,279,11,0.101961020689905,1
567,280,11,0.0980557484261941,1
567,281,11,0.0989806147446584,1
567,282,11,0.104633368937376,1
567,283,11,0.113003588780327,1
567,284,11,0.121414697352693,1
567,285,11,0.10332224912552,1
567,286,11,0.0900764786769493,1
567,287,11,0.0828790686769826,1
567,288,11,0.0828319929132056,1
567,289,11,0.0865946109971757,1
567,290,11,0.0874902289916735,1
567,291,11,0.084763549223976,1
567,292,11,0.0795537370103474,1
567,293,11,0.0751920510923564,1
567,294,11,0.0694515750352436,1
567,295,11,0.0637121041545814,1
567,296,11,0.0619440276620862,1
567,297,11,0.0615695416654189,1
568,277,11,0.0938222744975597,1
568,278,11,0.0876895774339874,1
568,279,11,0.0858209081970268,1
568,280,11,0.085573958295206,1
568,281,11,0.0922286307805271,1
568,282,11,0.104349701210722,1
568,283,11,0.124821090145518,1
568,284,11,0.142675900795231,1
568,285,11,0.119071203557151,1
568,290,11,0.0826244759680103,1
568,291,11,0.0775681322462824,1
568,292,11,0.0716129297025343,1
568,293,11,0.071188323528357,1
568,294,11,0.0707915618972407,1
568,295,11,0.0682848713503545,1
568,296,11,0.0677468362128981,1
569,277,11,0.0810841817022578,1
569,278,11,0.0757073773296524,1
569,279,11,0.0729634766941406,1
569,280,11,0.073475816286465,1
569,281,11,0.0796008301047528,1
569,282,11,0.0882368555732898,1
569,283,11,0.102800204381257,1
569,284,11,0.12130327296544,1
569,291,11,0.0648236791103352,1
569,292,11,0.0615586811382498,1
569,293,11,0.0631310543972842,1
569,294,11,0.0669310662005975,1
569,295,11,0.0701283302997801,1
570,278,11,0.0677194827043101,1
570,279,11,0.0654743922171706,1
570,280,11,0.0657443283092072,1
570,281,11,0.0692271491735462,1
570,282,11,0.0729373594370494,1
570,291,11,0.055859798589444,1
570,292,11,0.0552696386984522,1
570,293,11,0.0576000825307635,1
570,294,11,0.0641668945066622,1
570,295,11,0.0712202407691065,1
571,278,11,0.0618026906101084,1
571,279,11,0.0600171101828672,1
571,280,11,0.0591001697384859,1
571,281,11,0.0604740841941341,1
571,291,11,0.0530306659231596,1
571,292,11,0.0517652354248028,1
571,293,11,0.054434192645972,1
571,294,11,0.0608185015504211,1
571,295,11,0.0680923627294067,1
572,279,11,0.054930772920149,1
572,280,11,0.0535106434552707,1
572,292,11,0.0534009001389778,1
572,293,11,0.056980812960833,1
572,294,11,0.0611341500634624,1
555,279,12,0.0512491004248453,1
556,277,12,0.0978030100944672,1
556,278,12,0.0926433353889769,1
556,279,12,0.069719362129351,1
556,280,12,0.0557717012280992,1
556,281,12,0.0567477679999142,1
557,276,12,0.12224609381499,1
557,277,12,0.13412833085436,1
557,278,12,0.133700252777614,1
557,279,12,0.0954420643560641,1
557,280,12,0.06923262565214,1
557,281,12,0.076674900101636,1
557,282,12,0.0950311262708665,1
558,276,12,0.128622078240901,1
558,277,12,0.145675278001767,1
558,278,12,0.149521683897471,1
558,279,12,0.108939741266195,1
558,280,12,0.0785223219881031,1
558,281,12,0.0820267945842664,1
558,282,12,0.098733306676516,1
558,283,12,0.0904401792458376,1
559,275,12,0.129237997222663,1
559,276,12,0.131707727315917,1
559,277,12,0.138526844357831,1
559,278,12,0.133930311093562,1
559,279,12,0.105621214759669,1
559,280,12,0.0863749221739245,1
559,281,12,0.0881188975391062,1
559,282,12,0.0956902736168865,1
559,283,12,0.0943755085961766,1
559,284,12,0.0859406859471988,1
560,276,12,0.137465204719551,1
560,277,12,0.135837939583303,1
560,278,12,0.11698647915204,1
560,279,12,0.100268892788203,1
560,280,12,0.093781183577478,1
560,281,12,0.0962518553015455,1
560,282,12,0.0971243426839237,1
560,283,12,0.0967332077301813,1
560,284,12,0.0930357354785971,1
561,275,12,0.127635295363821,1
561,276,12,0.143429898670819,1
561,277,12,0.142788411235202,1
561,278,12,0.119136828870257,1
561,279,12,0.105285913313953,1
561,280,12,0.100665648642443,1
561,281,12,0.10273517986327,1
561,282,12,0.101443863182868,1
561,283,12,0.101658786083293,1
561,284,12,0.0963994429335217,1
562,276,12,0.12413188571287,1
562,277,12,0.126225726028552,1
562,278,12,0.11691548134411,1
562,279,12,0.11156764222854,1
562,280,12,0.106122173905971,1
562,281,12,0.104871676632471,1
562,282,12,0.104278957585343,1
562,283,12,0.107283360674133,1
563,277,12,0.114202429227259,1
563,278,12,0.117272191892852,1
563,279,12,0.118017639991733,1
563,280,12,0.110462502712821,1
563,281,12,0.105279004170073,1
563,282,12,0.104743464643115,1
563,293,12,0.0692252659119201,1
564,277,12,0.109359535302536,1
564,278,12,0.113012635368384,1
564,279,12,0.114322276299945,1
564,280,12,0.108700855883485,1
564,281,12,0.103650167723512,1
564,282,12,0.103204123561928,1
564,283,12,0.103581619311071,1
564,292,12,0.0766898044421127,1
564,293,12,0.0633608527538045,1
564,294,12,0.052268586197832,1
565,277,12,0.108365415792741,1
565,278,12,0.107214384772857,1
565,279,12,0.105154142768885,1
565,280,12,0.100893973895544,1
565,281,12,0.0992319435186038,1
565,282,12,0.0996301089306253,1
565,283,12,0.0961688127068353,1
565,284,12,0.0945419115137856,1
565,291,12,0.0864755495796468,1
565,292,12,0.0769987691094442,1
565,293,12,0.0631268199470635,1
565,294,12,0.0535033241531839,1
565,295,12,0.0524005820410692,1
566,277,12,0.106433767051952,1
566,278,12,0.101839371231859,1
566,279,12,0.0969887825080996,1
566,280,12,0.093595768960447,1
566,281,12,0.0942998661798193,1
566,282,12,0.097340386298322,1
566,283,12,0.0957657716113399,1
566,284,12,0.0937002842038208,1
566,285,12,0.0896114690309526,1
566,286,12,0.0860493663182794,1
566,287,12,0.0869960114598434,1
566,288,12,0.0902316629010677,1
566,289,12,0.0869760350221037,1
566,290,12,0.0845134162633945,1
566,291,12,0.083345193260077,1
566,292,12,0.0754315026089297,1
566,293,12,0.0654197660762607,1
566,294,12,0.0593137986186519,1
566,295,12,0.0573942928715382,1
567,277,12,0.100509984937604,1
567,278,12,0.0944562808785584,1
567,279,12,0.0902184511853041,1
567,280,12,0.0877401597615897,1
567,281,12,0.0896279273511146,1
567,282,12,0.0962478114882379,1
567,283,12,0.105603237121079,1
567,284,12,0.116615765455501,1
567,285,12,0.107324272511054,1
567,290,12,0.0926849693354171,1
567,291,12,0.082719967730832,1
567,292,12,0.0720486910245646,1
567,293,12,0.0676323443044068,1
567,294,12,0.0655745632496768,1
567,295,12,0.0620551689824083,1
567,296,12,0.059306889474772,1
568,278,12,0.0834673568601005,1
568,279,12,0.0801957616954475,1
568,280,12,0.0796916425978899,1
568,281,12,0.0842509150109678,1
568,282,12,0.0955782888726459,1
568,283,12,0.117532775222396,1
568,284,12,0.145554830133961,1
568,291,12,0.079216974014964,1
568,292,12,0.0657644029538416,1
568,293,12,0.0655077132388255,1
568,294,12,0.0673226055356708,1
569,278,12,0.074009553428063,1
569,279,12,0.0714071284895567,1
569,280,12,0.0711576367622282,1
569,281,12,0.0757926960135673,1
569,282,12,0.0836925683769548,1
569,292,12,0.0562755834737345,1
569,293,12,0.0589726394205155,1
569,294,12,0.0636250870690774,1
570,279,12,0.0674147929253324,1
570,280,12,0.0655656437528954,1
570,281,12,0.0675163850693724,1
570,292,12,0.0528195788685013,1
570,293,12,0.056190952238082,1
570,294,12,0.0628323379082495,1
571,279,12,0.0660924717506135,1
571,280,12,0.0622264475834911,1
571,292,12,0.0538210407878883,1
571,293,12,0.0562962069216034,1
571,294,12,0.0615628347122043,1
556,278,13,0.102476641547885,1
556,279,13,0.0713976544126645,1
556,280,13,0.0572385078522998,1
556,281,13,0.0580233542465493,1
557,277,13,0.151644616561463,1
557,278,13,0.144359340275197,1
557,279,13,0.0953396692262387,1
557,280,13,0.06862697795618,1
557,281,13,0.0742382310706095,1
557,282,13,0.087539540406522,1
558,276,13,0.138615346100507,1
558,277,13,0.153309754897774,1
558,278,13,0.152294399591237,1
558,279,13,0.105472298446177,1
558,280,13,0.0780787156682561,1
558,281,13,0.083732815873118,1
558,282,13,0.100535668928984,1
558,283,13,0.0967309663022336,1
559,276,13,0.137715516763293,1
559,277,13,0.134177653822961,1
559,278,13,0.12729190629149,1
559,279,13,0.0987427923071605,1
559,280,13,0.084703019115637,1
559,281,13,0.0879657294447655,1
559,282,13,0.0978599354320863,1
559,283,13,0.0978462442356019,1
559,284,13,0.0871245354005122,1
560,276,13,0.139761432114403,1
560,277,13,0.127447951270155,1
560,278,13,0.111202878714439,1
560,279,13,0.0967474303992718,1
560,280,13,0.0924535823379545,1
560,281,13,0.0932954580535939,1
560,282,13,0.0956506673539763,1
560,283,13,0.0956037995577408,1
560,284,13,0.0944564079698338,1
561,276,13,0.139672306469103,1
561,277,13,0.133196197225695,1
561,278,13,0.117260788339325,1
561,279,13,0.10663674337249,1
561,280,13,0.102060117223447,1
561,281,13,0.100690454548648,1
561,282,13,0.0997521165549927,1
561,283,13,0.098566828659517,1
561,284,13,0.0967200595600553,1
562,277,13,0.123880152557594,1
562,278,13,0.123170521090866,1
562,279,13,0.120968791836137,1
562,280,13,0.113867347302837,1
562,281,13,0.105297212883709,1
562,282,13,0.102650132692535,1
562,283,13,0.102810279253269,1
562,284,13,0.100049833644453,1
563,278,13,0.129510723545882,1
563,279,13,0.133013232004153,1
563,280,13,0.122247769109074,1
563,281,13,0.106397499823459,1
563,282,13,0.102144378739025,1
563,283,13,0.104309852319014,1
563,293,13,0.0649711107666552,1
564,277,13,0.112772467519167,1
564,278,13,0.120312561812575,1
564,279,13,0.123147413586251,1
564,280,13,0.11481749323135,1
564,281,13,0.10181964897667,1
564,282,13,0.0990801041057784,1
564,283,13,0.0994063705171903,1
564,292,13,0.0710795045122486,1
564,293,13,0.0616533468077814,1
564,294,13,0.0524357574399695,1
565,277,13,0.108416171426628,1
565,278,13,0.108593094035713,1
565,279,13,0.106171323568287,1
565,280,13,0.100093645473203,1
565,281,13,0.0951148332063345,1
565,282,13,0.0953410267921349,1
565,283,13,0.0935074347471799,1
565,291,13,0.0801177218754864,1
565,292,13,0.0720552593327514,1
565,293,13,0.0606174084915088,1
565,294,13,0.0523382957623794,1
566,277,13,0.10567774726971,1
566,278,13,0.102001447269229,1
566,279,13,0.0957113476610954,1
566,280,13,0.0909609473004704,1
566,281,13,0.090844387270316,1
566,282,13,0.0949190028815983,1
566,283,13,0.0943255848324558,1
566,284,13,0.0906837034600993,1
566,291,13,0.0776094946795433,1
566,292,13,0.0700757780574094,1
566,293,13,0.0609583597221036,1
566,294,13,0.0566477529430642,1
567,278,13,0.0936519606347946,1
567,279,13,0.0880684827409124,1
567,280,13,0.0849014836958993,1
567,281,13,0.0867911056626696,1
567,282,13,0.093115381270129,1
567,283,13,0.0998240848781162,1
567,284,13,0.109843198481634,1
567,291,13,0.0755057354675055,1
567,292,13,0.0654665067812207,1
567,293,13,0.0614950257399115,1
567,294,13,0.0610684612047181,1
568,278,13,0.0839873392595764,1
568,279,13,0.0800981151578206,1
568,280,13,0.0791403726371652,1
568,281,13,0.0822597933301759,1
568,282,13,0.0902844924334938,1
568,292,13,0.061476932563798,1
568,293,13,0.0607198498363434,1
569,279,13,0.0719414722031508,1
569,280,13,0.0715755590906957,1
569,281,13,0.0756493255011833,1
569,293,13,0.057122080690297,1
570,280,13,0.0656909095354135,1
556,279,14,0.0709875944126424,1
556,280,14,0.0566056972846649,1
556,281,14,0.0572948381716751,1
557,278,14,0.138756948888788,1
557,279,14,0.0902853127499077,1
557,280,14,0.0668395258210651,1
557,281,14,0.0699918747081522,1
557,282,14,0.0783272311035146,1
558,277,14,0.143781190509729,1
558,278,14,0.135220553274999,1
558,279,14,0.096606734580547,1
558,280,14,0.0763916194256842,1
558,281,14,0.0813822107430301,1
558,282,14,0.0952565284246339,1
558,283,14,0.0935108662116152,1
559,277,14,0.119489865325766,1
559,278,14,0.110889263661804,1
559,279,14,0.0905310264002316,1
559,280,14,0.0816718575365034,1
559,281,14,0.0843109598617099,1
559,282,14,0.093446910415717,1
559,283,14,0.0927750712727872,1
559,284,14,0.080830807914154,1
560,277,14,0.113421222264987,1
560,278,14,0.102464983811807,1
560,279,14,0.0923333193301855,1
560,280,14,0.0895594771455688,1
560,281,14,0.0901033758123212,1
560,282,14,0.0938348392031941,1
560,283,14,0.0912788950102209,1
560,284,14,0.088621555086997,1
561,277,14,0.119671652064572,1
561,278,14,0.112845799185063,1
561,279,14,0.107418146748552,1
561,280,14,0.103439357958909,1
561,281,14,0.101782815614314,1
561,282,14,0.101676636630608,1
561,283,14,0.0955422122810656,1
561,284,14,0.0912022127561559,1
562,278,14,0.124440532652013,1
562,279,14,0.130195456676387,1
562,280,14,0.122621602318736,1
562,281,14,0.109962040377869,1
562,282,14,0.103331596111136,1
562,283,14,0.0975317973128006,1
562,284,14,0.0930982008404477,1
563,278,14,0.131800203549387,1
563,279,14,0.146495317125545,1
563,280,14,0.134422697355651,1
563,281,14,0.11088108360517,1
563,282,14,0.098174359247383,1
563,283,14,0.0965112081564685,1
563,284,14,0.0958690043882076,1
564,278,14,0.118308806103635,1
564,279,14,0.128525407995344,1
564,280,14,0.118084247373786,1
564,281,14,0.100545697585987,1
564,282,14,0.0919194581456542,1
564,283,14,0.0915893847728569,1
564,284,14,0.0916711853391941,1
564,293,14,0.0604283833268817,1
565,277,14,0.107342989589792,1
565,278,14,0.103417509813295,1
565,279,14,0.102832913054039,1
565,280,14,0.0952628598808984,1
565,281,14,0.0905002645347128,1
565,282,14,0.0888328732167014,1
565,283,14,0.087955117323271,1
565,292,14,0.066570889526163,1
565,293,14,0.0602228305195787,1
565,294,14,0.0540691633955683,1
566,278,14,0.0986953757076904,1
566,279,14,0.0929336985150933,1
566,280,14,0.0875697072537969,1
566,281,14,0.0885343646952083,1
566,282,14,0.0910803784380732,1
566,283,14,0.0893786609219562,1
566,284,14,0.0836280406703173,1
566,292,14,0.0640805013237827,1
566,293,14,0.0573701628598439,1
567,278,14,0.091777283446634,1
567,279,14,0.0874225471106561,1
567,280,14,0.0849790151507589,1
567,281,14,0.0874753535355776,1
567,282,14,0.0903268831507101,1
567,283,14,0.090958226391802,1
568,279,14,0.0816012872174091,1
568,280,14,0.081901291949826,1
568,281,14,0.0839390907899402,1
568,282,14,0.0853736393376982,1
569,280,14,0.0749594336202731,1
557,279,15,0.0915845899656493,1
557,280,15,0.075006393846527,1
557,281,15,0.0729098846140622,1
558,278,15,0.117799944190755,1
558,279,15,0.0945380352298864,1
558,280,15,0.08304879329838,1
558,281,15,0.0820645118086743,1
558,282,15,0.0869284682238537,1
559,278,15,0.09887637679134,1
559,279,15,0.0874831523183852,1
559,280,15,0.0827124462380798,1
559,281,15,0.0828840310135987,1
559,282,15,0.0878237222751538,1
559,283,15,0.0860485171174848,1
560,278,15,0.0964925777308726,1
560,279,15,0.0889412243058413,1
560,280,15,0.0862773102975544,1
560,281,15,0.0872425512034573,1
560,282,15,0.0922504962567691,1
560,283,15,0.0889003760145581,1
561,278,15,0.11046585330099,1
561,279,15,0.106209601149682,1
561,280,15,0.101326904548259,1
561,281,15,0.0998149574137933,1
561,282,15,0.102362825533904,1
561,283,15,0.0949190548734836,1
561,284,15,0.0879678784426947,1
562,278,15,0.12462873172335,1
562,279,15,0.130645070947434,1
562,280,15,0.123355993476659,1
562,281,15,0.109931110982941,1
562,282,15,0.103710073929226,1
562,283,15,0.0952379615446757,1
562,284,15,0.089501211572682,1
563,278,15,0.130832056874778,1
563,279,15,0.147596204860414,1
563,280,15,0.13813749445882,1
563,281,15,0.112446016247718,1
563,282,15,0.0971018937431902,1
563,283,15,0.0919056514116467,1
564,278,15,0.116996738884089,1
564,279,15,0.128119131849203,1
564,280,15,0.11877999123024,1
564,281,15,0.0992921270143736,1
564,282,15,0.088817604933027,1
564,283,15,0.08706862101622,1
565,277,15,0.107671647627931,1
565,278,15,0.102361184901076,1
565,279,15,0.102164875095619,1
565,280,15,0.0946393674144995,1
565,281,15,0.0883498859321142,1
565,282,15,0.0851325067501642,1
565,283,15,0.0841780512720404,1
565,293,15,0.0607650654459989,1
566,278,15,0.0970936443640426,1
566,279,15,0.0923258036143095,1
566,280,15,0.0875748486735738,1
566,281,15,0.0873600297569201,1
566,282,15,0.0869801077197921,1
566,283,15,0.0852110722658554,1
567,279,15,0.0876995598759811,1
567,280,15,0.0867287673920944,1
567,281,15,0.0878734669557138,1
567,282,15,0.0866936266544511,1
568,280,15,0.085415746987983,1
558,279,16,0.0981463645055419,1
558,280,16,0.102087903997746,1
559,279,16,0.0874142284089947,1
559,280,16,0.0855594814435646,1
559,281,16,0.0815850484185409,1
559,282,16,0.0815400176689223,1
560,279,16,0.0893734386259132,1
560,280,16,0.0849549891228354,1
560,281,16,0.0826700035289781,1
560,282,16,0.0865861420967343,1
561,278,16,0.108048542581955,1
561,279,16,0.105480732685362,1
561,280,16,0.0987944260262228,1
561,281,16,0.0936770207235496,1
561,282,16,0.0946936989347256,1
561,283,16,0.0889381105695944,1
562,278,16,0.12200420445668,1
562,279,16,0.125210255184492,1
562,280,16,0.118133882293699,1
562,281,16,0.104246607078882,1
562,282,16,0.096830848490932,1
562,283,16,0.0877563119073156,1
563,279,16,0.138743719842396,1
563,280,16,0.130859762772812,1
563,281,16,0.107675922516285,1
563,282,16,0.0921925426351946,1
564,279,16,0.124438660944139,1
564,280,16,0.114408062910828,1
564,281,16,0.0956317423076966,1
564,282,16,0.085689940637745,1
565,278,16,0.107720173387623,1
565,279,16,0.106359083597036,1
565,280,16,0.097456143342691,1
565,281,16,0.0885978352335097,1
565,282,16,0.0844210671212005,1
566,279,16,0.0977478986959603,1
566,280,16,0.0934625599732175,1
566,281,16,0.0897561451173473,1
566,282,16,0.0862609270767824,1
567,280,16,0.0926693948773065,1
559,280,17,0.0842660966414998,1
560,280,17,0.0860722427478483,1
561,279,17,0.109195206283467,1
561,280,17,0.100177860773772,1
561,281,17,0.092401567345066,1
561,282,17,0.0903400370977122,1
562,279,17,0.126344186650961,1
562,280,17,0.115404574047352,1
562,281,17,0.101545952138258,1
562,282,17,0.0923378310704616,1
563,280,17,0.122607090805838,1
564,280,17,0.115169720924197,1
565,279,17,0.120993054715983,1
565,280,17,0.110662994976613,1
565,281,17,0.0948815398397411,1
566,280,17,0.107213760870232,1
561,280,18,0.104874183796722,1
562,280,18,0.116049816452469,1
565,280,18,0.148905984437003,1
