x,y,z,signal,cytoplasm.p
351,126,1,0.0608736360564326,1
351,127,1,0.0552023323143848,1
351,128,1,0.0487801155486147,1
352,126,1,0.0561719001005269,1
352,127,1,0.0529950457047955,1
352,128,1,0.0499735835007241,1
353,125,1,0.0573467145195358,1
353,126,1,0.0547000040484348,1
353,127,1,0.0527745365651304,1
353,128,1,0.0508285842789849,1
354,124,1,0.0601293722171632,1
354,125,1,0.0570182471183093,1
354,126,1,0.0537070919057554,1
354,127,1,0.0518541993175707,1
354,128,1,0.0500999411128352,1
355,124,1,0.060461796778555,1
355,125,1,0.0569211782682977,1
355,126,1,0.0535242306679843,1
355,127,1,0.0516733022176919,1
355,128,1,0.0497847547498862,1
356,124,1,0.060186245562897,1
356,125,1,0.0566269792964153,1
356,126,1,0.0536802352085166,1
356,127,1,0.0514423773703216,1
356,128,1,0.04948598049209,1
357,124,1,0.0575369354975268,1
357,125,1,0.054579931677579,1
357,126,1,0.0523034611991723,1
357,127,1,0.0500703866144326,1
357,128,1,0.0484669164310626,1
360,127,1,0.0508043329528914,1
360,128,1,0.0487670944697641,1
361,126,1,0.0490493122005036,1
361,127,1,0.0483578085711465,1
350,126,2,0.0718416304525854,1
350,127,2,0.0696218311292471,1
350,128,2,0.0550991168681456,1
351,125,2,0.0605346374099778,1
351,126,2,0.0603578649996728,1
351,127,2,0.05577000282651,1
351,128,2,0.0499838432327732,1
352,125,2,0.0575258958871969,1
352,126,2,0.0557640584209477,1
352,127,2,0.0524174274119336,1
352,128,2,0.049771745224788,1
353,123,2,0.0616336303294686,1
353,124,2,0.0592417725267668,1
353,125,2,0.0563098114649455,1
353,126,2,0.05385642415433,1
353,127,2,0.0522488408351385,1
353,128,2,0.0502837150970386,1
354,123,2,0.0628976743775485,1
354,124,2,0.0593819715341424,1
354,125,2,0.0557845547775413,1
354,126,2,0.0526983453455385,1
354,127,2,0.0515012957302138,1
354,128,2,0.0500595260872636,1
355,122,2,0.0716718422855503,1
355,123,2,0.0645915584496011,1
355,124,2,0.0593421226424337,1
355,125,2,0.0553943325702311,1
355,126,2,0.0526134830348398,1
355,127,2,0.0517988799515223,1
355,128,2,0.050517649696885,1
356,123,2,0.0650192436987684,1
356,124,2,0.059820153367281,1
356,125,2,0.055641473108965,1
356,126,2,0.0530872446482095,1
356,127,2,0.0517293783545164,1
356,128,2,0.051061721669922,1
356,129,2,0.0492729408532917,1
357,123,2,0.0622353959646533,1
357,124,2,0.0580343823031268,1
357,125,2,0.0537699212108037,1
357,126,2,0.051247361585123,1
357,127,2,0.0501087566258459,1
357,128,2,0.0504956109143584,1
357,129,2,0.0506134303035143,1
357,130,2,0.0483925478158971,1
358,123,2,0.0623567970170245,1
358,124,2,0.0571118036276194,1
358,125,2,0.0507239188368311,1
358,126,2,0.0492070382501297,1
358,127,2,0.0492156053574657,1
358,128,2,0.0501366300532878,1
360,126,2,0.0514086750748406,1
360,127,2,0.05029398638284,1
361,125,2,0.0509274266299756,1
361,126,2,0.0504255951753749,1
362,124,2,0.0513433039442847,1
363,124,2,0.0490058585380751,1
350,126,3,0.0759267137634583,1
350,127,3,0.078810790298841,1
350,128,3,0.062570859162902,1
351,125,3,0.0637460317482325,1
351,126,3,0.0642819005571312,1
351,127,3,0.0615464457145561,1
351,128,3,0.0544278207515744,1
351,129,3,0.0481698116904748,1
352,123,3,0.0628472826868593,1
352,124,3,0.0616850965191225,1
352,125,3,0.0605421069108446,1
352,126,3,0.0594877345827654,1
352,127,3,0.0562780964148614,1
352,128,3,0.0523777922646427,1
352,129,3,0.0489606082671627,1
353,122,3,0.0683960588856859,1
353,123,3,0.0633617886077414,1
353,124,3,0.0601917913640046,1
353,125,3,0.0575726423690331,1
353,126,3,0.0557002123856964,1
353,127,3,0.0544726897486606,1
353,128,3,0.0517717459642281,1
353,129,3,0.0492522596366613,1
354,122,3,0.070782214911624,1
354,123,3,0.0644042779015724,1
354,124,3,0.06008814842893,1
354,125,3,0.057060504967374,1
354,126,3,0.0547394370050604,1
354,127,3,0.0542429722684064,1
354,128,3,0.0527214990651628,1
354,129,3,0.0497449925113199,1
355,121,3,0.0746257439230036,1
355,122,3,0.073750160135007,1
355,123,3,0.0658686351302838,1
355,124,3,0.0602752730013025,1
355,125,3,0.0573946510378597,1
355,126,3,0.0554229049996876,1
355,127,3,0.054818585985243,1
355,128,3,0.0536416687833141,1
355,129,3,0.0512086680686452,1
356,122,3,0.0713287882720356,1
356,123,3,0.0644727107764898,1
356,124,3,0.0606910232243362,1
356,125,3,0.0578442653089067,1
356,126,3,0.0556252516407253,1
356,127,3,0.0540497819760725,1
356,128,3,0.0540088181472662,1
356,129,3,0.0534762248271466,1
356,130,3,0.0509214706706611,1
357,121,3,0.0695030758861543,1
357,122,3,0.0662511394310526,1
357,123,3,0.06240126163278,1
357,124,3,0.0595610200336519,1
357,125,3,0.0559968838605726,1
357,126,3,0.053384528471958,1
357,127,3,0.0528127332702591,1
357,128,3,0.0539409167449549,1
357,129,3,0.0538686942392806,1
357,130,3,0.0504038798979129,1
358,122,3,0.0639728607904098,1
358,123,3,0.0649348031000289,1
358,124,3,0.058611746413438,1
358,125,3,0.0514914865945047,1
358,126,3,0.0509634512296705,1
358,127,3,0.0531764165085189,1
358,128,3,0.054569186687933,1
358,129,3,0.052876076717285,1
359,123,3,0.0757694729714291,1
359,124,3,0.065447431536161,1
359,125,3,0.0536376018625018,1
359,126,3,0.053017269347359,1
359,127,3,0.0549550993456324,1
360,124,3,0.065496199924651,1
360,125,3,0.0563674473583316,1
360,126,3,0.0546717666777952,1
360,127,3,0.0521948443737293,1
360,128,3,0.0489824159746431,1
360,129,3,0.0489110368928873,1
360,130,3,0.0496107379095066,1
361,125,3,0.0563510352531788,1
361,126,3,0.0536010688977055,1
361,127,3,0.0487670367010026,1
361,129,3,0.0494260685094994,1
361,130,3,0.0513055347279914,1
361,131,3,0.0485585665712419,1
362,124,3,0.0574652386875825,1
362,125,3,0.0527757497091227,1
362,126,3,0.0510635298321582,1
362,129,3,0.0503117733845174,1
362,130,3,0.0503880397034993,1
363,124,3,0.0542667845519122,1
363,125,3,0.0509943575170931,1
363,126,3,0.049093545741213,1
363,128,3,0.048233992784543,1
363,129,3,0.0492697982326641,1
364,124,3,0.0501478949617876,1
364,125,3,0.0488673521554126,1
350,125,4,0.0651702108032945,1
350,126,4,0.0742151928885083,1
350,127,4,0.0788514479532112,1
350,128,4,0.0637620279183022,1
351,124,4,0.0658083187663624,1
351,125,4,0.0650497860429933,1
351,126,4,0.0646970673156733,1
351,127,4,0.0627130627463029,1
351,128,4,0.0550026661438825,1
351,129,4,0.049364475455948,1
352,122,4,0.0707142615174273,1
352,123,4,0.0663082496287086,1
352,124,4,0.0635855154674242,1
352,125,4,0.0618307777819679,1
352,126,4,0.0600186468319241,1
352,127,4,0.0565920869644466,1
352,128,4,0.0520772098446104,1
352,129,4,0.0486277331094309,1
353,121,4,0.0787100300249672,1
353,122,4,0.0737205767522236,1
353,123,4,0.0672895213659382,1
353,124,4,0.0623816318076095,1
353,125,4,0.0590401826565053,1
353,126,4,0.0566624377622471,1
353,127,4,0.0550589560251247,1
353,128,4,0.0522536356423461,1
353,129,4,0.0498040784006205,1
354,121,4,0.0792397522376383,1
354,122,4,0.0766619598990516,1
354,123,4,0.0691879241844622,1
354,124,4,0.0631238795171012,1
354,125,4,0.0590369071677261,1
354,126,4,0.0563626987661332,1
354,127,4,0.055203054423904,1
354,128,4,0.0535706998597652,1
354,129,4,0.0510142184173097,1
355,121,4,0.0817574823948544,1
355,122,4,0.0804512671508521,1
355,123,4,0.072520078341835,1
355,124,4,0.0657195512873838,1
355,125,4,0.0613965126708615,1
355,126,4,0.0585893032495806,1
355,127,4,0.0562510259732049,1
355,128,4,0.0543688330691683,1
355,129,4,0.0523306991702372,1
355,130,4,0.0482930844507198,1
356,121,4,0.0790893108288422,1
356,122,4,0.078398142258302,1
356,123,4,0.0733028797219261,1
356,124,4,0.0684096345446472,1
356,125,4,0.0628352725613356,1
356,126,4,0.0594761057310678,1
356,127,4,0.0564778434616299,1
356,128,4,0.054957075037277,1
356,129,4,0.0532151446862537,1
356,130,4,0.0501369131202193,1
357,120,4,0.0804281249849801,1
357,121,4,0.0765373353497866,1
357,122,4,0.0770740822438607,1
357,123,4,0.0775295484904514,1
357,124,4,0.0718232830939211,1
357,125,4,0.0618917642635232,1
357,126,4,0.0589655858547318,1
357,127,4,0.058855097321415,1
357,128,4,0.0577353885240368,1
357,129,4,0.0537837394985635,1
357,130,4,0.0486693901633756,1
358,121,4,0.0745632207923915,1
358,122,4,0.0758000730844156,1
358,123,4,0.0820334148843386,1
358,124,4,0.0716722120056242,1
358,125,4,0.0576019773461419,1
358,126,4,0.057653339552025,1
358,127,4,0.0618866575050032,1
358,128,4,0.0603906429949692,1
358,129,4,0.053898127423284,1
359,122,4,0.0784220989637116,1
359,123,4,0.088963719461584,1
359,124,4,0.0758593033956201,1
359,125,4,0.0604842688267932,1
359,126,4,0.0595788012584532,1
359,127,4,0.0622454303985324,1
359,128,4,0.0578871990524814,1
359,129,4,0.0525349983954149,1
360,123,4,0.0815254368335102,1
360,124,4,0.072360359269936,1
360,125,4,0.0632829284713665,1
360,126,4,0.0597313916651785,1
360,127,4,0.0561777520760706,1
360,128,4,0.0508982765129038,1
360,129,4,0.0498732391619333,1
360,130,4,0.0488188668338541,1
361,124,4,0.0667454320622727,1
361,125,4,0.0624824671808733,1
361,126,4,0.057657210059048,1
361,127,4,0.0518421314232855,1
361,129,4,0.0505109542974228,1
361,130,4,0.0507847724502348,1
362,122,4,0.0711192494201865,1
362,123,4,0.0719702526001488,1
362,124,4,0.0634446290117863,1
362,125,4,0.0597691262202149,1
362,126,4,0.0559452616952627,1
362,127,4,0.0512200542915442,1
362,128,4,0.0484820114084523,1
362,129,4,0.0503121662120958,1
362,130,4,0.0492387359695853,1
363,121,4,0.0671209059047623,1
363,122,4,0.0667197307402646,1
363,123,4,0.0681276074508208,1
363,124,4,0.0611459868827015,1
363,125,4,0.0590002759960351,1
363,126,4,0.0545648135926846,1
363,127,4,0.0511068852876921,1
363,128,4,0.0489987703110344,1
363,129,4,0.0488513444315905,1
364,122,4,0.0603199051464665,1
364,123,4,0.0576010357153289,1
364,124,4,0.0535429188623418,1
364,125,4,0.0530646397318198,1
364,126,4,0.0491817759707093,1
364,127,4,0.0480971501422128,1
365,124,4,0.0498558912028436,1
365,125,4,0.0483474448553267,1
369,130,4,0.0559765434796353,1
370,130,4,0.0573702264054816,1
349,126,5,0.0807573549338589,1
350,124,5,0.0672879327249959,1
350,125,5,0.0665651357575139,1
350,126,5,0.0710154158481989,1
350,127,5,0.0749455691175041,1
350,128,5,0.062909979123756,1
351,123,5,0.0705451203605214,1
351,124,5,0.0685512431098043,1
351,125,5,0.0661501827433895,1
351,126,5,0.0640458920587456,1
351,127,5,0.0630869248403456,1
351,128,5,0.055891507862652,1
351,129,5,0.0507163973440789,1
352,121,5,0.0809602677087597,1
352,122,5,0.0754871974719281,1
352,123,5,0.070463724175515,1
352,124,5,0.0658709285501169,1
352,125,5,0.0635329574481773,1
352,126,5,0.0613900772308262,1
352,127,5,0.0587493400496682,1
352,128,5,0.0537010088551655,1
352,129,5,0.0496129562299496,1
353,120,5,0.0861943023641011,1
353,121,5,0.0837725954423128,1
353,122,5,0.0780728463620839,1
353,123,5,0.071083802508107,1
353,124,5,0.0650707156652983,1
353,125,5,0.0622459907555193,1
353,126,5,0.0599713977618626,1
353,127,5,0.0576655634219663,1
353,128,5,0.0539409629599641,1
353,129,5,0.0510140855491582,1
354,120,5,0.0883417578673659,1
354,121,5,0.0853399774803503,1
354,122,5,0.0807197936851072,1
354,123,5,0.0741941708361848,1
354,124,5,0.0680860717112752,1
354,125,5,0.0638154409152199,1
354,126,5,0.060158181498542,1
354,127,5,0.0575002927720835,1
354,128,5,0.0549957050081172,1
354,129,5,0.0528443558903248,1
354,130,5,0.0482443189506679,1
355,120,5,0.0863064430839978,1
355,121,5,0.0861006476478964,1
355,122,5,0.0829642891540028,1
355,123,5,0.0774455873724327,1
355,124,5,0.0713480888152653,1
355,125,5,0.066612927853934,1
355,126,5,0.0619767767730019,1
355,127,5,0.0587560874410158,1
355,128,5,0.0560344971012098,1
355,129,5,0.0543414448993234,1
355,130,5,0.0496048397189536,1
356,119,5,0.0840957365637255,1
356,120,5,0.0848732521021359,1
356,121,5,0.0846285494051389,1
356,122,5,0.0820983411954307,1
356,123,5,0.0800988141598352,1
356,124,5,0.0738001127831085,1
356,125,5,0.0674281028479907,1
356,126,5,0.0620382773965348,1
356,127,5,0.059684743390237,1
356,128,5,0.0562608120014094,1
356,129,5,0.053590606974991,1
356,130,5,0.0490179322092364,1
357,119,5,0.0846400973805703,1
357,120,5,0.0866998830113256,1
357,121,5,0.0834277852584473,1
357,122,5,0.0827748827155496,1
357,123,5,0.0879810901584583,1
357,124,5,0.0785447420444559,1
357,125,5,0.0679266934750692,1
357,126,5,0.0638131706028914,1
357,127,5,0.0648782590362359,1
357,128,5,0.0598907930088892,1
357,129,5,0.0533346855845034,1
358,119,5,0.0865946052202996,1
358,120,5,0.0888865230655414,1
358,121,5,0.08229548864793,1
358,122,5,0.0841200976504659,1
358,123,5,0.0947427041751379,1
358,124,5,0.0810935286878745,1
358,125,5,0.0664556524006479,1
358,126,5,0.0636509328129893,1
358,127,5,0.0669456759203904,1
358,128,5,0.0612247488121818,1
358,129,5,0.0530909245183194,1
359,121,5,0.0832455421464247,1
359,122,5,0.082963619036369,1
359,123,5,0.0920638165038604,1
359,124,5,0.0784925248609021,1
359,125,5,0.0665639168366455,1
359,126,5,0.0638946534410402,1
359,127,5,0.0642788272590174,1
359,128,5,0.0577263939278654,1
359,129,5,0.0523623911128168,1
359,130,5,0.0484935016151221,1
360,122,5,0.080203144543172,1
360,123,5,0.0835198802180905,1
360,124,5,0.0744620330296822,1
360,125,5,0.0669317420951075,1
360,126,5,0.0617427439662608,1
360,127,5,0.0571827552205399,1
360,128,5,0.0519306620503418,1
360,129,5,0.0508830602211148,1
360,130,5,0.0494443176612691,1
361,122,5,0.0777318142552229,1
361,123,5,0.077188533714219,1
361,124,5,0.0694068677906896,1
361,125,5,0.0640143676455745,1
361,126,5,0.0586465116541313,1
361,127,5,0.0537983607721086,1
361,128,5,0.0503856422998955,1
361,129,5,0.0512581296822737,1
361,130,5,0.0503990215450676,1
361,131,5,0.048140889760011,1
362,121,5,0.0775409751514836,1
362,122,5,0.075559142687547,1
362,123,5,0.0759552804160386,1
362,124,5,0.0684567103084242,1
362,125,5,0.0628335394984895,1
362,126,5,0.0574883230846929,1
362,127,5,0.053063819415406,1
362,128,5,0.0499310021465947,1
362,129,5,0.0498634993487381,1
362,130,5,0.048813904497238,1
363,120,5,0.071318696069395,1
363,121,5,0.0696872831360692,1
363,122,5,0.069778500010537,1
363,123,5,0.0716681624154404,1
363,124,5,0.0663851976190767,1
363,125,5,0.0625212242429889,1
363,126,5,0.0574822342572268,1
363,127,5,0.0535576036815246,1
363,128,5,0.0501566238216559,1
363,129,5,0.0485685778976164,1
363,131,5,0.0481324439670742,1
363,132,5,0.0487533686120228,1
364,121,5,0.0651430017166103,1
364,122,5,0.0636579286100115,1
364,123,5,0.061940376676357,1
364,124,5,0.0585869693916145,1
364,125,5,0.0567781139303499,1
364,126,5,0.053494162027604,1
364,127,5,0.0521390050888271,1
364,128,5,0.0503839150139255,1
364,129,5,0.048905652844312,1
364,130,5,0.0480215568293028,1
364,131,5,0.049322356251911,1
364,132,5,0.0492396025010084,1
365,122,5,0.0642423867242395,1
365,123,5,0.0589448122080829,1
365,124,5,0.0551214791557368,1
365,125,5,0.0528562909164584,1
365,126,5,0.0500855278068316,1
365,127,5,0.0495706232814949,1
365,128,5,0.0487994103149682,1
365,129,5,0.0483181734238556,1
366,125,5,0.0496743297622071,1
369,130,5,0.0483163537078672,1
370,130,5,0.0483248197198705,1
349,125,6,0.0655354769056204,1
349,126,6,0.0723098347110952,1
350,124,6,0.0677183388828316,1
350,125,6,0.0653929555940311,1
350,126,6,0.0668266953791276,1
350,127,6,0.0708912130108931,1
351,123,6,0.0727970737765316,1
351,124,6,0.0700268652470155,1
351,125,6,0.0661225750522507,1
351,126,6,0.0638572886060777,1
351,127,6,0.0643815054557743,1
351,128,6,0.0584741181159509,1
351,129,6,0.0538880814356526,1
352,121,6,0.0839017144012254,1
352,122,6,0.0789834900114576,1
352,123,6,0.0735286227113865,1
352,124,6,0.068727403171237,1
352,125,6,0.0660004403366079,1
352,126,6,0.0639346409777765,1
352,127,6,0.0629814101973972,1
352,128,6,0.0580618051342287,1
352,129,6,0.0539595876086838,1
352,130,6,0.0496788472793594,1
353,120,6,0.0927988026800269,1
353,121,6,0.0883647729419624,1
353,122,6,0.0812020935214321,1
353,123,6,0.0759064484819109,1
353,124,6,0.0717539721338283,1
353,125,6,0.0688055585287212,1
353,126,6,0.0647804391923243,1
353,127,6,0.0624839749455495,1
353,128,6,0.0586119254965988,1
353,129,6,0.0553230285878653,1
353,130,6,0.0513992356592053,1
354,120,6,0.0972705323118707,1
354,121,6,0.0915774901848563,1
354,122,6,0.0839591769883268,1
354,123,6,0.0811061107241374,1
354,124,6,0.0782129471625648,1
354,125,6,0.0729945620647239,1
354,126,6,0.0656718920591153,1
354,127,6,0.06174579415687,1
354,128,6,0.0594857935523777,1
354,129,6,0.057345443606782,1
354,130,6,0.0523441650685516,1
355,119,6,0.0921504869767953,1
355,120,6,0.092411861738372,1
355,121,6,0.0903304705908016,1
355,122,6,0.0844834458299088,1
355,123,6,0.0830213820210304,1
355,124,6,0.0806395066603223,1
355,125,6,0.075152958971424,1
355,126,6,0.0672815203924653,1
355,127,6,0.0626164040544982,1
355,128,6,0.0604725533219534,1
355,129,6,0.058951617368192,1
355,130,6,0.0529419966510756,1
356,118,6,0.0858745927071237,1
356,119,6,0.0886074941704387,1
356,120,6,0.0925877849478824,1
356,121,6,0.0918680381710096,1
356,122,6,0.0838325767474172,1
356,123,6,0.082760544508936,1
356,124,6,0.0782282789918769,1
356,125,6,0.0735222392632366,1
356,126,6,0.0675209256940293,1
356,127,6,0.0642695611496668,1
356,128,6,0.0597626618957988,1
356,129,6,0.0562572938838317,1
356,130,6,0.0501507314079791,1
357,118,6,0.0880537921448534,1
357,119,6,0.0919143282796296,1
357,120,6,0.098446184377922,1
357,121,6,0.0951616778950653,1
357,122,6,0.0862575476042324,1
357,123,6,0.090758872172612,1
357,124,6,0.0817729066541849,1
357,125,6,0.0752126803171015,1
357,126,6,0.0718138147939051,1
357,127,6,0.0710326078316324,1
357,128,6,0.0625148119104582,1
357,129,6,0.0543725129392783,1
358,118,6,0.0888285232289577,1
358,119,6,0.0922787913961702,1
358,120,6,0.0972114233150655,1
358,121,6,0.092285844961954,1
358,122,6,0.0887334762855999,1
358,123,6,0.0985693935925293,1
358,124,6,0.0865740742024491,1
358,125,6,0.076101146538921,1
358,126,6,0.0720154797635566,1
358,127,6,0.0712084443880005,1
358,128,6,0.0618513781223322,1
358,129,6,0.0534055967392908,1
359,119,6,0.0887868777287652,1
359,120,6,0.0909405491507715,1
359,121,6,0.0865615152736908,1
359,122,6,0.0833765790282204,1
359,123,6,0.0900768657276516,1
359,124,6,0.0802600236657819,1
359,125,6,0.072944407225957,1
359,126,6,0.0683483130042751,1
359,127,6,0.0651407833961673,1
359,128,6,0.0579004916445112,1
359,129,6,0.0529444864846978,1
359,130,6,0.0491857966765123,1
359,131,6,0.048442887514701,1
360,122,6,0.0823205776210658,1
360,123,6,0.0826531119431045,1
360,124,6,0.0760639030183577,1
360,125,6,0.0686321771447184,1
360,126,6,0.062121655050062,1
360,127,6,0.0577339962968837,1
360,128,6,0.0544352035992989,1
360,129,6,0.0527834040700265,1
360,130,6,0.0503073020823744,1
360,131,6,0.0495593294886143,1
361,120,6,0.0857592573747139,1
361,121,6,0.0838196769829659,1
361,122,6,0.0800493121080736,1
361,123,6,0.0780847698344652,1
361,124,6,0.0728197364616828,1
361,125,6,0.0643937582100964,1
361,126,6,0.0592618645020296,1
361,127,6,0.0564387224563166,1
361,128,6,0.0546427609826272,1
361,129,6,0.0528994326275747,1
361,130,6,0.0506317487777979,1
361,131,6,0.0504913360260046,1
361,132,6,0.0487521670217828,1
362,120,6,0.0803508477126713,1
362,121,6,0.0775445394840704,1
362,122,6,0.076437747781772,1
362,123,6,0.0764089904922786,1
362,124,6,0.0738606313376953,1
362,125,6,0.0648244069967306,1
362,126,6,0.0599576545734928,1
362,127,6,0.0560183911704931,1
362,128,6,0.0536336100410796,1
362,129,6,0.0510521724936399,1
362,130,6,0.0496818685855878,1
362,131,6,0.0511302700823625,1
362,132,6,0.0522272988639611,1
362,133,6,0.0507432424875654,1
363,119,6,0.0786703891008001,1
363,120,6,0.072675586071018,1
363,121,6,0.0697957902008652,1
363,122,6,0.0713985382747161,1
363,123,6,0.0724300110657218,1
363,124,6,0.0728615437144075,1
363,125,6,0.0665035138195818,1
363,126,6,0.0624800408928888,1
363,127,6,0.0566515483506972,1
363,128,6,0.0531909280214171,1
363,129,6,0.049820663812058,1
363,130,6,0.0493626904012165,1
363,131,6,0.0521514080419292,1
363,132,6,0.0556036172395294,1
363,133,6,0.0534577561540831,1
364,120,6,0.0718553158721937,1
364,121,6,0.0674257920975292,1
364,122,6,0.0688627091645103,1
364,123,6,0.0677105574306525,1
364,124,6,0.0683240501244293,1
364,125,6,0.0637264308074428,1
364,126,6,0.0610448395581254,1
364,127,6,0.0561804845384914,1
364,128,6,0.0542260517981521,1
364,129,6,0.0514231461496057,1
364,130,6,0.0510234671960319,1
364,131,6,0.0514255955450949,1
364,132,6,0.0531222640714536,1
364,133,6,0.0498055803884205,1
365,121,6,0.0706880518303177,1
365,122,6,0.0689099986727049,1
365,123,6,0.0651821169450474,1
365,124,6,0.0645794154559259,1
365,125,6,0.0603502164156452,1
365,126,6,0.0574615992556056,1
365,127,6,0.0539387850776542,1
365,128,6,0.0536122991449484,1
365,129,6,0.0517636063457275,1
365,130,6,0.049874429198421,1
366,122,6,0.0649988859872025,1
366,123,6,0.0606784065268164,1
366,124,6,0.0596764766804609,1
366,125,6,0.0561260259269899,1
366,126,6,0.0527119094507476,1
366,127,6,0.0502702549756003,1
366,128,6,0.0506382188790901,1
366,129,6,0.0491874142018354,1
349,125,7,0.0650463430248056,1
349,126,7,0.0674296799351807,1
349,127,7,0.0710680316362073,1
350,124,7,0.067329000537573,1
350,125,7,0.0641732028554221,1
350,126,7,0.0641325452010519,1
350,127,7,0.0678843374191099,1
350,128,7,0.0640797098917497,1
351,123,7,0.0768042963506041,1
351,124,7,0.0759260609764529,1
351,125,7,0.0691718760225071,1
351,126,7,0.0636587835876823,1
351,127,7,0.0641728562428528,1
351,128,7,0.0605944685163022,1
351,129,7,0.0570264676130761,1
352,121,7,0.0858939105809818,1
352,122,7,0.0826929030660516,1
352,123,7,0.0847669806884114,1
352,124,7,0.0848002266106763,1
352,125,7,0.0765689984079854,1
352,126,7,0.0662882443065882,1
352,127,7,0.0645089029055931,1
352,128,7,0.0603576916933882,1
352,129,7,0.0584746553654332,1
352,130,7,0.0567248164709553,1
353,120,7,0.0971469187159326,1
353,121,7,0.0906578577161873,1
353,122,7,0.0856287981805336,1
353,123,7,0.0881902072983482,1
353,124,7,0.0899538124887004,1
353,125,7,0.0815279786590179,1
353,126,7,0.0689339264937338,1
353,127,7,0.0648927070034964,1
353,128,7,0.0606460617972315,1
353,129,7,0.0580621459699218,1
353,130,7,0.0558926632378827,1
353,131,7,0.049747852065016,1
354,119,7,0.0993287177479315,1
354,120,7,0.104146644013918,1
354,121,7,0.0962438138899395,1
354,122,7,0.0890795631590953,1
354,123,7,0.0889205777504678,1
354,124,7,0.0895588185816873,1
354,125,7,0.0815474409547799,1
354,126,7,0.0696502706905521,1
354,127,7,0.0648357874427535,1
354,128,7,0.0621469115526062,1
354,129,7,0.0594630673215888,1
354,130,7,0.0540067558024793,1
354,131,7,0.0480658510272118,1
355,118,7,0.0909315661083524,1
355,119,7,0.0942909062449048,1
355,120,7,0.0993687399459247,1
355,121,7,0.0956303269730389,1
355,122,7,0.0900494833346828,1
355,123,7,0.0872730300020445,1
355,124,7,0.0856587512833908,1
355,125,7,0.0791861774881884,1
355,126,7,0.0703776602745763,1
355,127,7,0.0670117576067132,1
355,128,7,0.066091327929135,1
355,129,7,0.0634259928093143,1
355,130,7,0.0545938135109764,1
355,131,7,0.0482477648572936,1
356,117,7,0.095049554505797,1
356,118,7,0.0937888090540009,1
356,119,7,0.0936134750858582,1
356,120,7,0.101736392637542,1
356,121,7,0.100510747485256,1
356,122,7,0.0923919661768985,1
356,123,7,0.0873947834438611,1
356,124,7,0.0826299062315949,1
356,125,7,0.0781376571356529,1
356,126,7,0.0718238723352888,1
356,127,7,0.0694181326991895,1
356,128,7,0.0664768535361322,1
356,129,7,0.0616874477077171,1
356,130,7,0.0522026142721561,1
356,131,7,0.0480642363903268,1
357,117,7,0.0999896617024352,1
357,118,7,0.0973860698349459,1
357,119,7,0.0993180420807994,1
357,120,7,0.110341015007308,1
357,121,7,0.108984731577681,1
357,122,7,0.0987003438211827,1
357,123,7,0.0967642931007646,1
357,124,7,0.0895025402541973,1
357,125,7,0.0848772612541866,1
357,126,7,0.0788936826947713,1
357,127,7,0.0746936453253148,1
357,128,7,0.0669872001061836,1
357,129,7,0.0584602824975626,1
357,130,7,0.0503688373671642,1
357,131,7,0.048759388116975,1
358,117,7,0.102286709413702,1
358,118,7,0.0976277512257145,1
358,119,7,0.0986475893881466,1
358,120,7,0.105520142534483,1
358,121,7,0.102985295493223,1
358,122,7,0.0980118903824347,1
358,123,7,0.102562451266273,1
358,124,7,0.0965036231180786,1
358,125,7,0.090055502839635,1
358,126,7,0.081328815076741,1
358,127,7,0.0742595824048738,1
358,128,7,0.0648833484641274,1
358,129,7,0.0564868496115536,1
358,130,7,0.050614585678745,1
358,131,7,0.04989219886947,1
359,118,7,0.0969654208209338,1
359,119,7,0.0970372967140389,1
359,120,7,0.0986465842116958,1
359,121,7,0.0945075564312992,1
359,122,7,0.0904756665960501,1
359,123,7,0.0926528556808783,1
359,124,7,0.0882582126844302,1
359,125,7,0.08395170748746,1
359,126,7,0.0758500488400217,1
359,127,7,0.0690107878309595,1
359,128,7,0.0623427187698378,1
359,129,7,0.0561727435244453,1
359,130,7,0.051375440706328,1
359,131,7,0.0504395925462954,1
360,119,7,0.0973890507030412,1
360,120,7,0.0963992580734848,1
360,121,7,0.0911293432403524,1
360,122,7,0.0878999654866311,1
360,123,7,0.0853426290665049,1
360,124,7,0.080123718272934,1
360,125,7,0.073354611647883,1
360,126,7,0.0664756866071491,1
360,127,7,0.0633122981097322,1
360,128,7,0.0606458076146807,1
360,129,7,0.0564585602490286,1
360,130,7,0.0523852097736241,1
360,131,7,0.0515768168321719,1
360,132,7,0.0487467309813221,1
361,119,7,0.0957786482682866,1
361,120,7,0.0946458432926678,1
361,121,7,0.0886316068515045,1
361,122,7,0.0860051616619509,1
361,123,7,0.0829665536894551,1
361,124,7,0.0785215478866985,1
361,125,7,0.0697991292352821,1
361,126,7,0.0639730109891898,1
361,127,7,0.0622695141952174,1
361,128,7,0.0594031957771313,1
361,129,7,0.0551324841048097,1
361,130,7,0.0518195438375243,1
361,131,7,0.0521306343952803,1
361,132,7,0.0508511545341176,1
362,119,7,0.0888516653948296,1
362,120,7,0.0861841639464512,1
362,121,7,0.0808359666645593,1
362,122,7,0.080507811214645,1
362,123,7,0.0807891508602092,1
362,124,7,0.0806933818073322,1
362,125,7,0.0723116428733313,1
362,126,7,0.06596632788292,1
362,127,7,0.0623130891720452,1
362,128,7,0.0578300888548253,1
362,129,7,0.0539165960963476,1
362,130,7,0.0515976886857154,1
362,131,7,0.0533809237012381,1
362,132,7,0.0546626854284815,1
362,133,7,0.0506492931506768,1
363,119,7,0.0815265344399795,1
363,120,7,0.0784624100055125,1
363,121,7,0.0757261175158952,1
363,122,7,0.0800598549070542,1
363,123,7,0.0829391828502386,1
363,124,7,0.0833342807410225,1
363,125,7,0.0759033751837971,1
363,126,7,0.0695496606154582,1
363,127,7,0.0635423910869364,1
363,128,7,0.0572610492230518,1
363,129,7,0.0537135908914284,1
363,130,7,0.0521189419979451,1
363,131,7,0.054089890827208,1
363,132,7,0.056644512115542,1
363,133,7,0.0525438196853017,1
364,119,7,0.0795205950718532,1
364,120,7,0.0788691194173655,1
364,121,7,0.076298507735838,1
364,122,7,0.0852701350476514,1
364,123,7,0.0899148012440341,1
364,124,7,0.0856085502296147,1
364,125,7,0.0749347663590965,1
364,126,7,0.0693974052675498,1
364,127,7,0.0639913236865972,1
364,128,7,0.0586558124247389,1
364,129,7,0.0557443477195111,1
364,130,7,0.0538406532824303,1
364,131,7,0.0523051884851422,1
364,132,7,0.0528125079720891,1
364,133,7,0.0493254295500248,1
365,120,7,0.083708321918226,1
365,121,7,0.0777141774523255,1
365,122,7,0.0846935103774879,1
365,123,7,0.0882905111990059,1
365,124,7,0.0813484737862922,1
365,125,7,0.0698102786062588,1
365,126,7,0.064547937257764,1
365,127,7,0.060879851975174,1
365,128,7,0.0577459833149028,1
365,129,7,0.0550465010801372,1
365,130,7,0.0518721191873996,1
366,121,7,0.0727081792062775,1
366,122,7,0.0733496435343908,1
366,123,7,0.0735812558300234,1
366,124,7,0.0694268557821816,1
366,125,7,0.0635602185267468,1
366,126,7,0.0589315947154431,1
366,127,7,0.0558341896974544,1
366,128,7,0.0544740357608044,1
366,129,7,0.0515653728405113,1
367,122,7,0.0658599062704155,1
367,123,7,0.0637035717085023,1
367,124,7,0.0628353823219826,1
367,125,7,0.0597604204678512,1
367,126,7,0.0537966334861386,1
367,127,7,0.0504783380546587,1
367,128,7,0.050372661659178,1
367,129,7,0.0485971156658159,1
349,125,8,0.0610995581290538,1
349,126,8,0.0617509933454084,1
349,127,8,0.0673116005865979,1
350,124,8,0.0657951879268649,1
350,125,8,0.0610103400537351,1
350,126,8,0.0602372842637154,1
350,127,8,0.066501982947401,1
350,128,8,0.0665198681559731,1
351,124,8,0.0937282500612811,1
351,125,8,0.0778197152027785,1
351,126,8,0.0631334460240118,1
351,127,8,0.064466593064643,1
351,128,8,0.0636837916845519,1
352,122,8,0.0819482117379468,1
352,123,8,0.105131994225712,1
352,124,8,0.120202223478038,1
352,125,8,0.0966769467333198,1
352,126,8,0.0686559663207196,1
352,127,8,0.0650176723884545,1
352,128,8,0.0628939136311724,1
352,129,8,0.0603361786065916,1
353,121,8,0.0868915770927358,1
353,122,8,0.0851431708635441,1
353,123,8,0.101993717808935,1
353,124,8,0.115559671618328,1
353,125,8,0.0959002861725802,1
353,126,8,0.0722357809356802,1
353,127,8,0.0666460871230565,1
353,128,8,0.0629523813947246,1
353,129,8,0.0586431841734667,1
353,130,8,0.0562916778506989,1
354,120,8,0.103746283388958,1
354,121,8,0.0958178270423614,1
354,122,8,0.0888084947993326,1
354,123,8,0.0896117636516364,1
354,124,8,0.0930721413521181,1
354,125,8,0.0828085965647829,1
354,126,8,0.0714725285044934,1
354,127,8,0.0688172855873133,1
354,128,8,0.0671043782620864,1
354,129,8,0.0610367172702532,1
354,130,8,0.0528352284260018,1
355,118,8,0.0929932176701054,1
355,119,8,0.0938610488903037,1
355,120,8,0.100084298487586,1
355,121,8,0.0958926202579241,1
355,122,8,0.0914438710394199,1
355,123,8,0.086255652788854,1
355,124,8,0.0841143323280645,1
355,125,8,0.0780571043745649,1
355,126,8,0.073023908595585,1
355,127,8,0.075514210144823,1
355,128,8,0.0779884404246013,1
355,129,8,0.0691139050703041,1
355,130,8,0.0542065028492478,1
356,117,8,0.100465179486156,1
356,118,8,0.101469431636725,1
356,119,8,0.0971030260109164,1
356,120,8,0.103376447777594,1
356,121,8,0.101567476778806,1
356,122,8,0.0987764137263754,1
356,123,8,0.0892264055740477,1
356,124,8,0.0844448562972017,1
356,125,8,0.0797724957565379,1
356,126,8,0.0763602452112932,1
356,127,8,0.0797961058493783,1
356,128,8,0.0816470747378038,1
356,129,8,0.0698479091775244,1
356,130,8,0.0535130177513699,1
356,131,8,0.0490840138955593,1
357,117,8,0.104750212034462,1
357,118,8,0.10440431579788,1
357,119,8,0.102309262338206,1
357,120,8,0.111813425201377,1
357,121,8,0.114805061393867,1
357,122,8,0.113484721687669,1
357,123,8,0.102875292217503,1
357,124,8,0.0979392981566866,1
357,125,8,0.0931532024783076,1
357,126,8,0.0846845793269542,1
357,127,8,0.079088779356236,1
357,128,8,0.0751783252346151,1
357,129,8,0.0636186342984136,1
357,130,8,0.0531970977251494,1
357,131,8,0.0516278844173711,1
358,117,8,0.105790361693451,1
358,118,8,0.100429732574076,1
358,119,8,0.0971920592261981,1
358,120,8,0.103337014820969,1
358,121,8,0.106847680228369,1
358,122,8,0.109942884256543,1
358,123,8,0.106654050893447,1
358,124,8,0.107337905938777,1
358,125,8,0.103595218077537,1
358,126,8,0.0902227491811625,1
358,127,8,0.0766069986993248,1
358,128,8,0.068435174114123,1
358,129,8,0.0594569611634943,1
358,130,8,0.0533474698114317,1
359,118,8,0.100493382195538,1
359,119,8,0.0976349723209067,1
359,120,8,0.0965120746878916,1
359,121,8,0.0938035169806884,1
359,122,8,0.0939495390792269,1
359,123,8,0.0923990832883199,1
359,124,8,0.0944093495366853,1
359,125,8,0.0930230667891919,1
359,126,8,0.0831449782863401,1
359,127,8,0.0729704378299058,1
359,128,8,0.0663561514857756,1
359,129,8,0.0594455922712237,1
359,130,8,0.0537732949064775,1
359,131,8,0.0515486314534177,1
360,119,8,0.102136187128639,1
360,120,8,0.0965388505088642,1
360,121,8,0.0877017030970341,1
360,122,8,0.0848244028373797,1
360,123,8,0.0824792915165141,1
360,124,8,0.0793343023696469,1
360,125,8,0.0757970575550633,1
360,126,8,0.0712680097580219,1
360,127,8,0.0686445743209444,1
360,128,8,0.0649034115550094,1
360,129,8,0.0597288498396709,1
360,130,8,0.0547870673489481,1
360,131,8,0.0527779449220612,1
360,132,8,0.0493379249331454,1
361,118,8,0.1018696189554,1
361,119,8,0.100513786122113,1
361,120,8,0.0961761608933029,1
361,121,8,0.0868046293297456,1
361,122,8,0.0832036771249384,1
361,123,8,0.081676351946151,1
361,124,8,0.0773429207294281,1
361,125,8,0.0721994501615492,1
361,126,8,0.0676660870380209,1
361,127,8,0.0666918861972035,1
361,128,8,0.062206494253256,1
361,129,8,0.0581609421059034,1
361,130,8,0.0550138039611069,1
361,131,8,0.0551191799590276,1
361,132,8,0.05240203781386,1
362,118,8,0.0961694712707168,1
362,119,8,0.0922531247354191,1
362,120,8,0.0890538560602111,1
362,121,8,0.0819048389517844,1
362,122,8,0.0784061374548988,1
362,123,8,0.0786796840945315,1
362,124,8,0.0771401639301835,1
362,125,8,0.074378690037412,1
362,126,8,0.0697606841244788,1
362,127,8,0.067667519703307,1
362,128,8,0.0612196882686711,1
362,129,8,0.0580121413299349,1
362,130,8,0.0559637188145739,1
362,131,8,0.0578638835803248,1
362,132,8,0.0566904844959736,1
362,133,8,0.0504513427123922,1
363,118,8,0.0905469936859206,1
363,119,8,0.086552393586244,1
363,120,8,0.0850593195061723,1
363,121,8,0.0818940650777577,1
363,122,8,0.0808121428273012,1
363,123,8,0.0834566927467207,1
363,124,8,0.0789797408188338,1
363,125,8,0.0770577741224786,1
363,126,8,0.0720273859053095,1
363,127,8,0.068707605816658,1
363,128,8,0.0607112480677505,1
363,129,8,0.0581797978296692,1
363,130,8,0.0559277693142691,1
363,131,8,0.0571077598143118,1
363,132,8,0.0564313569392206,1
363,133,8,0.0512206146485312,1
364,118,8,0.0850513994089655,1
364,119,8,0.0854270234502351,1
364,120,8,0.086145233578051,1
364,121,8,0.08450498202421,1
364,122,8,0.08952886547883,1
364,123,8,0.0980662392332893,1
364,124,8,0.0861406005233757,1
364,125,8,0.0791347401829153,1
364,126,8,0.0729590516070068,1
364,127,8,0.0685573839291557,1
364,128,8,0.0607890163745324,1
364,129,8,0.0587576703050819,1
364,130,8,0.0552008418803371,1
364,131,8,0.0521111374382614,1
364,132,8,0.0499962866240084,1
365,119,8,0.0865604234440978,1
365,120,8,0.0855172235944999,1
365,121,8,0.0812114982758104,1
365,122,8,0.0885667152016694,1
365,123,8,0.0990310237659761,1
365,124,8,0.085402298420297,1
365,125,8,0.0762305774491459,1
365,126,8,0.0702274846020832,1
365,127,8,0.0656513725950171,1
365,128,8,0.0587000632960766,1
365,129,8,0.0559766185790253,1
365,130,8,0.0514019623447499,1
366,120,8,0.0819348671540317,1
366,121,8,0.0752411256552826,1
366,122,8,0.0744754873742443,1
366,123,8,0.0795805474925769,1
366,124,8,0.0724046621331591,1
366,125,8,0.0706562212427105,1
366,126,8,0.066285234554112,1
366,127,8,0.0610363128889224,1
366,128,8,0.0554566246257971,1
366,129,8,0.0519328745939087,1
367,122,8,0.067734057762846,1
367,123,8,0.0672798624290091,1
367,124,8,0.0660919518317596,1
367,125,8,0.0648464111180002,1
367,126,8,0.0592353833017408,1
367,128,8,0.0516796625583372,1
367,129,8,0.0497291465400301,1
368,128,8,0.0483218041905182,1
350,125,9,0.0572809101232684,1
350,126,9,0.056950079979695,1
350,127,9,0.0626256586100965,1
351,124,9,0.101924198881301,1
351,125,9,0.0796138627373557,1
351,126,9,0.0622634831365129,1
351,127,9,0.061510184262939,1
352,123,9,0.110827843914537,1
352,124,9,0.140855572457925,1
352,125,9,0.106912542993823,1
352,126,9,0.0708692435508803,1
352,127,9,0.0621477838609054,1
352,128,9,0.062186581361154,1
353,122,9,0.0807151201922988,1
353,123,9,0.100813502010723,1
353,124,9,0.123785330912406,1
353,125,9,0.0980870013261859,1
353,126,9,0.0730091082388791,1
353,127,9,0.0646556297830224,1
353,128,9,0.0621886148215601,1
353,129,9,0.057036305633166,1
354,118,9,0.0910185831938564,1
354,120,9,0.0969604989224508,1
354,121,9,0.0919992830203468,1
354,122,9,0.0857836588995874,1
354,123,9,0.0844349374008457,1
354,124,9,0.0883934666858182,1
354,125,9,0.0783511242632865,1
354,126,9,0.0717735961821226,1
354,127,9,0.0692714404830171,1
354,128,9,0.0679023208345765,1
354,129,9,0.0596048491930305,1
354,130,9,0.0506982348454515,1
355,117,9,0.0946692685254713,1
355,118,9,0.09545596352009,1
355,119,9,0.093807635893386,1
355,120,9,0.0957036124239255,1
355,121,9,0.0935056554693245,1
355,122,9,0.0913405689400384,1
355,123,9,0.0850598740862831,1
355,124,9,0.0814821795848709,1
355,125,9,0.0763815734380529,1
355,126,9,0.0765833019533421,1
355,127,9,0.0806264682508432,1
355,128,9,0.0826830939303425,1
355,129,9,0.0673565851212072,1
355,130,9,0.0515424097578001,1
356,116,9,0.0980376205888236,1
356,117,9,0.102734602175655,1
356,118,9,0.109003090490097,1
356,119,9,0.10425620824705,1
356,120,9,0.101413523029309,1
356,121,9,0.098955127167068,1
356,122,9,0.103123305064536,1
356,123,9,0.0928773797494703,1
356,124,9,0.089000951428395,1
356,125,9,0.0844572823578084,1
356,126,9,0.0851376655005696,1
356,127,9,0.09012873052176,1
356,128,9,0.0909228834634933,1
356,129,9,0.0706610969261843,1
356,130,9,0.0527942126053101,1
357,116,9,0.106079921833782,1
357,117,9,0.106681467947673,1
357,118,9,0.111879535772081,1
357,119,9,0.10897907023905,1
357,120,9,0.108920862434925,1
357,121,9,0.113760047605157,1
357,122,9,0.124254413256091,1
357,123,9,0.108643780347086,1
357,124,9,0.105978179490962,1
357,125,9,0.100406058935598,1
357,126,9,0.0918430011897592,1
357,127,9,0.0850414111900956,1
357,128,9,0.080392805164176,1
357,129,9,0.0639997925870386,1
357,130,9,0.0536307967023927,1
358,117,9,0.108146090912687,1
358,118,9,0.104196348256345,1
358,119,9,0.0985325602301729,1
358,120,9,0.100766085411253,1
358,121,9,0.108912589948272,1
358,122,9,0.1224639513685,1
358,123,9,0.113410685242882,1
358,124,9,0.119082884400734,1
358,125,9,0.115436728140023,1
358,126,9,0.0984669349170662,1
358,127,9,0.0808033850830521,1
358,128,9,0.0714795589627725,1
358,129,9,0.0609861696039078,1
358,130,9,0.0544951040281372,1
359,118,9,0.106756463353901,1
359,119,9,0.0999579004373419,1
359,120,9,0.0958924065135064,1
359,121,9,0.0943112350720899,1
359,122,9,0.09962878024911,1
359,123,9,0.0944727623062251,1
359,124,9,0.100971245390977,1
359,125,9,0.099717524620584,1
359,126,9,0.0891802945485884,1
359,127,9,0.0763481888707603,1
359,128,9,0.0680911784697952,1
359,129,9,0.0602678612691973,1
359,130,9,0.0541701489676122,1
359,131,9,0.0499646640039427,1
360,119,9,0.105167452691544,1
360,120,9,0.0957772387105051,1
360,121,9,0.0864277632601029,1
360,122,9,0.0852849411812334,1
360,123,9,0.0837622375033691,1
360,124,9,0.0840705262761905,1
360,125,9,0.0814224871235741,1
360,126,9,0.0785415185475621,1
360,127,9,0.0729715874282604,1
360,128,9,0.0669521517985588,1
360,129,9,0.0605980963945268,1
360,130,9,0.0559153548074147,1
360,131,9,0.0523081289151045,1
360,132,9,0.0484175241399479,1
361,119,9,0.102291365575882,1
361,120,9,0.0944933164315802,1
361,121,9,0.0855084889577554,1
361,122,9,0.0826503910344361,1
361,123,9,0.082206218580726,1
361,124,9,0.0797672561298664,1
361,125,9,0.0754323922478574,1
361,126,9,0.0724683637465066,1
361,127,9,0.0689553471505119,1
361,128,9,0.0637999704408801,1
361,129,9,0.058740391668506,1
361,130,9,0.056669046508567,1
361,131,9,0.0552483162485687,1
361,132,9,0.0516831980065433,1
362,119,9,0.0961186116530591,1
362,120,9,0.0919574179988605,1
362,121,9,0.084108191508713,1
362,122,9,0.0797406189539214,1
362,123,9,0.0800190412770279,1
362,124,9,0.0788882408774345,1
362,125,9,0.0770693740897954,1
362,126,9,0.0737507667070031,1
362,127,9,0.0696790915256832,1
362,128,9,0.0637670826849367,1
362,129,9,0.0594427153868991,1
362,130,9,0.0585487438021051,1
362,131,9,0.0578365705098699,1
362,132,9,0.0552287499690359,1
362,133,9,0.0484783719764754,1
363,118,9,0.0916097020462897,1
363,119,9,0.0937694565188859,1
363,120,9,0.0930351115759725,1
363,121,9,0.087324444199813,1
363,122,9,0.0823797732710133,1
363,123,9,0.0840113479568714,1
363,124,9,0.0791206041669671,1
363,125,9,0.0789977531186812,1
363,126,9,0.0752931522019234,1
363,127,9,0.0696334426503162,1
363,128,9,0.0624572222320814,1
363,129,9,0.0591861932012915,1
363,130,9,0.0580792339695846,1
363,131,9,0.0562537815431303,1
363,132,9,0.0541056385916031,1
363,133,9,0.0485362793830407,1
364,118,9,0.0878537158161441,1
364,119,9,0.0906343400533654,1
364,120,9,0.0918049142452775,1
364,121,9,0.0888850499621222,1
364,122,9,0.0889087698156095,1
364,123,9,0.0970122481790362,1
364,124,9,0.086553104142011,1
364,125,9,0.0842813880326788,1
364,126,9,0.0786184318766732,1
364,127,9,0.0697363230377384,1
364,128,9,0.0611026718653006,1
364,129,9,0.0583912372737729,1
364,130,9,0.0555940102944857,1
364,131,9,0.051023998668638,1
364,132,9,0.0485551408836827,1
365,119,9,0.0867502920326433,1
365,120,9,0.0853307055941235,1
365,121,9,0.0830186726661143,1
365,122,9,0.0880765819212799,1
365,123,9,0.099672210804034,1
365,124,9,0.0888951999335243,1
365,125,9,0.084891478146401,1
365,126,9,0.0783446657157466,1
365,127,9,0.0680488224138358,1
365,128,9,0.0580242785467339,1
365,129,9,0.0547331286563005,1
365,130,9,0.0508858793366778,1
366,120,9,0.0832920922144717,1
366,121,9,0.0776460680824727,1
366,122,9,0.0756234566497668,1
366,123,9,0.0820221326452103,1
366,124,9,0.0765979636650203,1
366,125,9,0.0774628371246278,1
366,126,9,0.0732298542304665,1
366,127,9,0.0645594563488146,1
366,128,9,0.0555871300349866,1
366,129,9,0.051566903712692,1
367,125,9,0.0672575925714364,1
367,126,9,0.0631852934874918,1
367,127,9,0.0576689371176401,1
367,128,9,0.0520405151272817,1
367,129,9,0.0496237705421095,1
368,128,9,0.048260705059878,1
351,125,10,0.0728069291272499,1
351,126,10,0.0572236150655754,1
352,124,10,0.134614732272754,1
352,125,10,0.103993822532146,1
352,126,10,0.0682555017119888,1
352,127,10,0.0590448965874467,1
353,120,10,0.0809069355881082,1
353,122,10,0.0710876903457585,1
353,123,10,0.087662622529854,1
353,124,10,0.112342610164566,1
353,125,10,0.0912304154655386,1
353,126,10,0.0698619354328257,1
353,127,10,0.0625936085011955,1
353,128,10,0.0596089334444712,1
354,119,10,0.0855622601209946,1
354,120,10,0.0865850849283982,1
354,121,10,0.0853579435651885,1
354,122,10,0.0791900595489637,1
354,123,10,0.0759501389962618,1
354,124,10,0.0790616800301987,1
354,125,10,0.0727022752388484,1
354,126,10,0.0697137007907203,1
354,127,10,0.0682608915374403,1
354,128,10,0.0650949496607633,1
354,129,10,0.0561677003115631,1
355,118,10,0.0967331441845436,1
355,119,10,0.091881729367494,1
355,120,10,0.0888078477892034,1
355,121,10,0.0883727912460639,1
355,122,10,0.0866702707441615,1
355,123,10,0.0807837205966247,1
355,124,10,0.0768507944267657,1
355,125,10,0.0744227271643321,1
355,126,10,0.0794151093132856,1
355,127,10,0.0844423780173317,1
355,128,10,0.081086030302627,1
355,129,10,0.0626390667396494,1
356,117,10,0.100265056942437,1
356,118,10,0.112757239673626,1
356,119,10,0.110738926236778,1
356,120,10,0.0976750522876614,1
356,121,10,0.0937883873420417,1
356,122,10,0.0977056350700194,1
356,123,10,0.0896820971188084,1
356,124,10,0.086692419287335,1
356,125,10,0.0867050186542263,1
356,126,10,0.0942230741651074,1
356,127,10,0.10134533278319,1
356,128,10,0.093662081721816,1
356,129,10,0.067618676215427,1
356,130,10,0.0507436584226485,1
357,116,10,0.100186433657985,1
357,117,10,0.10320143153764,1
357,118,10,0.115505253444959,1
357,119,10,0.114240845453682,1
357,120,10,0.102898653904669,1
357,121,10,0.107301638710283,1
357,122,10,0.117977999067566,1
357,123,10,0.102348729956088,1
357,124,10,0.0997555133581711,1
357,125,10,0.0994836651201276,1
357,126,10,0.0976751793789368,1
357,127,10,0.0952018445149624,1
357,128,10,0.0847814344325481,1
357,129,10,0.0641730411028898,1
358,117,10,0.101543514296521,1
358,118,10,0.10226487282184,1
358,119,10,0.096757170212467,1
358,120,10,0.0939993704129293,1
358,121,10,0.105861925635244,1
358,122,10,0.119044583711834,1
358,123,10,0.107568911662413,1
358,124,10,0.11094963201761,1
358,125,10,0.110815608490843,1
358,126,10,0.0978872600562936,1
358,127,10,0.0845542645546777,1
358,128,10,0.073579626750948,1
358,130,10,0.0543660197304815,1
359,118,10,0.104872427626371,1
359,119,10,0.0970397461095281,1
359,120,10,0.0902985706806805,1
359,121,10,0.0914137619609065,1
359,122,10,0.0965934188810126,1
359,123,10,0.0899601323912126,1
359,124,10,0.0949711854038952,1
359,125,10,0.0950816334990788,1
359,126,10,0.0888794232847484,1
359,127,10,0.078740006235329,1
359,128,10,0.0691425583760268,1
359,129,10,0.0604351422719816,1
359,130,10,0.0537721164237421,1
359,131,10,0.0481962726716971,1
360,119,10,0.101421148505832,1
360,120,10,0.0900318927467946,1
360,121,10,0.0829356185176517,1
360,122,10,0.0820563144214121,1
360,123,10,0.0823433211824831,1
360,124,10,0.0843736505217305,1
360,125,10,0.0826204032703219,1
360,126,10,0.0837479859498978,1
360,127,10,0.0785579306527149,1
360,128,10,0.0700157274297911,1
360,129,10,0.0609648933690335,1
360,130,10,0.0556428768898704,1
360,131,10,0.0505525362519775,1
361,120,10,0.0915440478488022,1
361,121,10,0.0828853828026187,1
361,122,10,0.0796333192562415,1
361,123,10,0.0825135483921059,1
361,124,10,0.084382275397828,1
361,125,10,0.0798334302462077,1
361,126,10,0.0787039931893865,1
361,127,10,0.0753781127195167,1
361,128,10,0.0705528498208152,1
361,129,10,0.0630013404201277,1
361,130,10,0.0589619521996311,1
361,131,10,0.0545066866648255,1
361,132,10,0.0509381254046124,1
362,119,10,0.101162760389227,1
362,120,10,0.0991012705800058,1
362,121,10,0.0863979892404064,1
362,122,10,0.0787554882634211,1
362,123,10,0.080925941510654,1
362,124,10,0.0837835830607572,1
362,125,10,0.0804507818932552,1
362,126,10,0.0770039394136018,1
362,127,10,0.0736073210952292,1
362,128,10,0.0712012464003129,1
362,129,10,0.0656805804808505,1
362,130,10,0.0620096876364498,1
362,131,10,0.0567929431714366,1
362,132,10,0.0542452945726202,1
362,133,10,0.0481361700521934,1
363,118,10,0.0940083650091007,1
363,119,10,0.105300956299457,1
363,120,10,0.107537185058577,1
363,121,10,0.0928396567481862,1
363,122,10,0.0816896387613047,1
363,123,10,0.0807205042408741,1
363,124,10,0.0808510674188252,1
363,125,10,0.0804469344937368,1
363,126,10,0.0767711717427384,1
363,127,10,0.0707643008186712,1
363,128,10,0.067200696118198,1
363,129,10,0.0638324076004834,1
363,130,10,0.060684593561177,1
363,131,10,0.0551848341565151,1
363,132,10,0.0535835476323311,1
363,133,10,0.0485125941908103,1
364,118,10,0.0908434687470076,1
364,119,10,0.0958128300444884,1
364,120,10,0.0977020071917949,1
364,121,10,0.0885537634453326,1
364,122,10,0.0828809577154849,1
364,123,10,0.0847542195689877,1
364,124,10,0.0836226161836089,1
364,125,10,0.0854028010085224,1
364,126,10,0.0801953515372406,1
364,127,10,0.0690093147275403,1
364,128,10,0.0617927601600001,1
364,129,10,0.059004441123742,1
364,130,10,0.0556335183505013,1
364,131,10,0.0507768985680372,1
364,132,10,0.0499166003943434,1
364,133,10,0.0482837172460365,1
365,119,10,0.0880882049961013,1
365,120,10,0.0865222151852168,1
365,121,10,0.0822510586934314,1
365,122,10,0.081604591590569,1
365,123,10,0.0870653339736885,1
365,124,10,0.0873164952182254,1
365,125,10,0.0895838035710523,1
365,126,10,0.082038088377147,1
365,127,10,0.0684309165563977,1
365,128,10,0.0585499338385928,1
365,129,10,0.0555575408753271,1
365,130,10,0.051686230866524,1
365,131,10,0.0493820775975885,1
365,132,10,0.0491108879234265,1
365,133,10,0.0494335784484993,1
365,134,10,0.0482812476314808,1
365,135,10,0.0479406574556456,1
366,120,10,0.0857086692702354,1
366,121,10,0.0795783233952577,1
366,122,10,0.0747595248209723,1
366,123,10,0.0773198016710608,1
366,124,10,0.07737334753613,1
366,125,10,0.08003181972708,1
366,126,10,0.0752222063858791,1
366,127,10,0.0655309362809636,1
366,128,10,0.0567967212484412,1
366,129,10,0.0530030409013923,1
366,130,10,0.0489249302800371,1
366,131,10,0.0480694817938744,1
366,133,10,0.0484762865241839,1
367,123,10,0.0708721493195857,1
367,125,10,0.0685914155065775,1
367,128,10,0.0533358294059818,1
367,129,10,0.0507236299930234,1
367,133,10,0.0500820616811394,1
368,128,10,0.0485237146774063,1
368,133,10,0.0524913194348163,1
371,126,10,0.0489316950020131,1
351,126,11,0.0525355876367826,1
352,125,11,0.0918712443372749,1
352,126,11,0.0631279002229042,1
352,127,11,0.0539264398933136,1
353,120,11,0.0724119236664844,1
353,123,11,0.0763813654705113,1
353,124,11,0.0950717723714844,1
353,125,11,0.081962682812712,1
353,126,11,0.0646685295474737,1
353,127,11,0.0581677761503933,1
353,128,11,0.0548498793233679,1
354,119,11,0.0861338589089043,1
354,120,11,0.0802422713253614,1
354,121,11,0.0779184304624939,1
354,122,11,0.0732009987340785,1
354,123,11,0.0709037892702798,1
354,124,11,0.0732832267892511,1
354,125,11,0.0695858758520661,1
354,126,11,0.0666555207618156,1
354,127,11,0.0647708900160422,1
354,128,11,0.0597498141232329,1
354,129,11,0.052891217909684,1
355,118,11,0.0987359640395467,1
355,119,11,0.0958198720565198,1
355,120,11,0.0875093100136094,1
355,121,11,0.0841640654548722,1
355,122,11,0.081768100293225,1
355,123,11,0.0771287026078945,1
355,124,11,0.0736290017114342,1
355,125,11,0.0721951406119385,1
355,126,11,0.0776740859318184,1
355,127,11,0.0810844185541801,1
355,128,11,0.0719187921873712,1
355,129,11,0.0573805092450353,1
356,117,11,0.0950411318203648,1
356,118,11,0.10878459748021,1
356,119,11,0.112210365915654,1
356,120,11,0.0977025964331626,1
356,121,11,0.0929056402276145,1
356,122,11,0.0932585784762283,1
356,123,11,0.0869766069328429,1
356,124,11,0.0836300452463426,1
356,125,11,0.0845063973588677,1
356,126,11,0.0941602101988022,1
356,127,11,0.0999132913996826,1
356,128,11,0.0849290625026574,1
356,129,11,0.063133001204548,1
357,116,11,0.0980268871529299,1
357,117,11,0.0995710923638386,1
357,118,11,0.112441625821842,1
357,119,11,0.113819965364623,1
357,120,11,0.101633159860675,1
357,121,11,0.105537091889118,1
357,122,11,0.110146184082146,1
357,123,11,0.0966320777362336,1
357,124,11,0.0920645097289989,1
357,125,11,0.0924229360099588,1
357,126,11,0.0956376982670111,1
357,127,11,0.0962220119593352,1
357,128,11,0.0819668306097904,1
357,129,11,0.0638742495144651,1
358,116,11,0.10266933502887,1
358,117,11,0.10105707821687,1
358,118,11,0.104560638066601,1
358,119,11,0.0996366136931745,1
358,120,11,0.0948339730414911,1
358,121,11,0.106371203483207,1
358,122,11,0.1134355604716,1
358,123,11,0.101146712227271,1
358,124,11,0.0981593855843925,1
358,125,11,0.0971354920549005,1
358,126,11,0.090908181313682,1
358,127,11,0.0841263482304643,1
358,128,11,0.0726375453415456,1
359,117,11,0.108473108317999,1
359,118,11,0.108634849296552,1
359,119,11,0.100507778170913,1
359,120,11,0.0923849646030001,1
359,121,11,0.0942061074798438,1
359,122,11,0.0964396037765427,1
359,123,11,0.0893989088728751,1
359,124,11,0.0890956864204405,1
359,125,11,0.0882130952816694,1
359,126,11,0.0878537909155341,1
359,127,11,0.0828875664618048,1
359,128,11,0.0698358586138677,1
359,129,11,0.058609944028078,1
359,130,11,0.0515994159716854,1
360,118,11,0.110774049643793,1
360,119,11,0.102067800468731,1
360,120,11,0.091666332763225,1
360,122,11,0.0836682766127282,1
360,123,11,0.083977668768895,1
360,124,11,0.0858647951251669,1
360,125,11,0.0841038126365885,1
360,126,11,0.0898789326199954,1
360,127,11,0.0879091911578487,1
360,128,11,0.0741879491405672,1
360,129,11,0.060376356780241,1
360,130,11,0.0542828847057527,1
360,131,11,0.0490247835843548,1
361,120,11,0.0943564275742407,1
361,121,11,0.0844084562005569,1
361,122,11,0.0806659300918496,1
361,123,11,0.0848366440379495,1
361,124,11,0.0892193635620163,1
361,125,11,0.0836998472409085,1
361,126,11,0.0841892815192833,1
361,127,11,0.082706594262536,1
361,128,11,0.076406639303684,1
361,129,11,0.0669582926179102,1
361,130,11,0.0599989592379921,1
361,131,11,0.05320621363572,1
361,132,11,0.0488331530485823,1
362,119,11,0.105385368013816,1
362,120,11,0.10538588793267,1
362,121,11,0.0896934140191936,1
362,122,11,0.0815317682897748,1
362,123,11,0.084484318138208,1
362,124,11,0.0898585691315534,1
362,125,11,0.083573778472605,1
362,126,11,0.07907810946598,1
362,127,11,0.0763435096010757,1
362,128,11,0.0777578217516672,1
362,129,11,0.0735251392550658,1
362,130,11,0.0651821804906851,1
362,131,11,0.0558131156532455,1
362,132,11,0.051934613433631,1
363,118,11,0.0984422329946328,1
363,119,11,0.114013560038288,1
363,120,11,0.117919929908468,1
363,121,11,0.0992551203457326,1
363,122,11,0.0854006635643455,1
363,123,11,0.083378595157998,1
363,124,11,0.0876731248907015,1
363,125,11,0.084217784626226,1
363,126,11,0.0788085950859026,1
363,127,11,0.0719096416155436,1
363,128,11,0.0717552314928298,1
363,129,11,0.0694416965770206,1
363,130,11,0.0629874932479872,1
363,131,11,0.0551754409558891,1
363,132,11,0.0528502020889924,1
363,133,11,0.049179020400784,1
364,119,11,0.101802711175787,1
364,120,11,0.103145534483976,1
364,121,11,0.0926411343991624,1
364,122,11,0.0842231051291636,1
364,123,11,0.0834966456222001,1
364,124,11,0.0892066197732211,1
364,125,11,0.0886244724094546,1
364,126,11,0.0820277304382033,1
364,127,11,0.0706107630042566,1
364,128,11,0.0657157558797508,1
364,129,11,0.0621613190817336,1
364,130,11,0.0576376091182583,1
364,131,11,0.0532661256183106,1
364,132,11,0.0524090509415107,1
364,133,11,0.0509996433587738,1
364,134,11,0.0496434581360415,1
365,120,11,0.0915203222184388,1
365,121,11,0.0874488087896511,1
365,122,11,0.0835515779375461,1
365,123,11,0.0864608532067116,1
365,124,11,0.0934467891013177,1
365,125,11,0.0933387037484809,1
365,126,11,0.0835569157711122,1
365,127,11,0.070268015165178,1
365,128,11,0.0628349779406518,1
365,129,11,0.058451241686382,1
365,130,11,0.0549832731706343,1
365,131,11,0.0534802455329496,1
365,132,11,0.0525454256568724,1
365,133,11,0.0517146877584574,1
365,134,11,0.0518395087215117,1
365,135,11,0.050209228055912,1
366,121,11,0.0833294339419295,1
366,122,11,0.0789680657521271,1
366,123,11,0.0805927544016099,1
366,124,11,0.0832957605308293,1
366,125,11,0.0817546343949106,1
366,126,11,0.0745698295387114,1
366,127,11,0.0665387007722343,1
366,128,11,0.0606032204836752,1
366,129,11,0.0561737891390292,1
366,130,11,0.0532648084905476,1
366,131,11,0.0529255787690466,1
366,132,11,0.051772756917555,1
366,133,11,0.0520574875894214,1
366,134,11,0.0531811246625842,1
367,122,11,0.0746070615055223,1
367,123,11,0.0750353764341904,1
367,124,11,0.0738907346393325,1
367,125,11,0.071858256302156,1
367,127,11,0.0624708903210612,1
367,128,11,0.0565729712812538,1
367,129,11,0.0532822719871604,1
367,130,11,0.0512753216657072,1
367,131,11,0.0515616120941352,1
367,132,11,0.0521665607880805,1
367,133,11,0.0563185114404331,1
368,127,11,0.0571084241550695,1
368,128,11,0.0512827218440602,1
368,129,11,0.0493972938893775,1
368,130,11,0.048257210049805,1
368,131,11,0.0488222231988994,1
368,132,11,0.0511462662524323,1
368,133,11,0.0574172675080017,1
369,126,11,0.0599397693649207,1
369,127,11,0.0535634845414491,1
370,126,11,0.0555402737925035,1
370,127,11,0.0511456885648169,1
371,125,11,0.0533804673280219,1
371,126,11,0.0515846964912456,1
371,127,11,0.049680487912187,1
372,126,11,0.0509165776565589,1
372,127,11,0.0494279748786301,1
352,126,12,0.0559990848503872,1
353,123,12,0.0677869161796529,1
353,124,12,0.0789230118950039,1
353,125,12,0.0714573006589521,1
353,126,12,0.0592885478929838,1
353,127,12,0.0539944048412625,1
354,119,12,0.0926993306495353,1
354,120,12,0.0783386404339183,1
354,121,12,0.0717354861301363,1
354,122,12,0.0686757347909178,1
354,123,12,0.0680874177234191,1
354,124,12,0.069409663798748,1
354,125,12,0.0669069881807887,1
354,126,12,0.0635699352324375,1
354,127,12,0.0614234213599857,1
354,128,12,0.0556414211170796,1
355,118,12,0.102793433882405,1
355,119,12,0.105541436099986,1
355,120,12,0.0897227894344355,1
355,121,12,0.0794308050857954,1
355,122,12,0.077008982626484,1
355,123,12,0.0755570976733885,1
355,124,12,0.0730165835166221,1
355,125,12,0.072052012728353,1
355,126,12,0.0753551149755486,1
355,127,12,0.0777516000560496,1
355,128,12,0.065970348588723,1
356,118,12,0.103194325979971,1
356,119,12,0.109180544571788,1
356,120,12,0.0947200819281198,1
356,121,12,0.0882600901691802,1
356,122,12,0.0870833000585267,1
356,123,12,0.084551682291037,1
356,124,12,0.0818039169253783,1
356,125,12,0.0819328163629971,1
356,126,12,0.0893263859696408,1
356,127,12,0.094531819311145,1
356,128,12,0.0781343238781122,1
356,129,12,0.0617334894106625,1
357,117,12,0.100341935610291,1
357,118,12,0.11302663851618,1
357,119,12,0.109920666390855,1
357,120,12,0.0967068882824247,1
357,121,12,0.0980910682469981,1
357,122,12,0.0978836783930783,1
357,123,12,0.0892666415164586,1
357,124,12,0.0852935198423218,1
357,125,12,0.0847818214832504,1
357,126,12,0.0878160736911262,1
357,127,12,0.0904577293955927,1
357,128,12,0.0769348999666882,1
358,117,12,0.109862285280446,1
358,118,12,0.118946145742174,1
358,119,12,0.106983587016762,1
358,120,12,0.0935864104210779,1
358,121,12,0.0988489712908665,1
358,122,12,0.100194498177095,1
358,123,12,0.0910889859835423,1
358,124,12,0.0866978206665387,1
358,125,12,0.0855427111720903,1
358,126,12,0.0823648978149174,1
358,127,12,0.0795028196239281,1
358,128,12,0.0684806843444623,1
359,118,12,0.116087204394936,1
359,119,12,0.103829851679398,1
359,120,12,0.091191808602203,1
359,121,12,0.0909729054341087,1
359,122,12,0.0909500232276636,1
359,123,12,0.0860010138648725,1
359,124,12,0.083983942456398,1
359,125,12,0.0848661580982191,1
359,126,12,0.0863804448675275,1
359,127,12,0.0843823042822088,1
359,128,12,0.0670677933054047,1
359,129,12,0.0563088987185133,1
359,130,12,0.0494424459533953,1
360,121,12,0.0851923205258603,1
360,122,12,0.0826341522355679,1
360,123,12,0.0831882182043509,1
360,124,12,0.0846918004221464,1
360,125,12,0.0869638746978,1
360,126,12,0.094581488892315,1
360,127,12,0.0943970736748586,1
360,128,12,0.075244222060901,1
360,129,12,0.0609068704249452,1
360,130,12,0.0541345460798765,1
361,120,12,0.0934124917875929,1
361,121,12,0.0853718427292144,1
361,122,12,0.0828030796480561,1
361,123,12,0.0869922102753342,1
361,124,12,0.0900660109773587,1
361,125,12,0.0865789961009321,1
361,126,12,0.0861706864943845,1
361,127,12,0.0846586527067761,1
361,128,12,0.0780511426383742,1
361,129,12,0.0734767694710304,1
361,130,12,0.0640281108339443,1
361,131,12,0.0528071528078946,1
362,119,12,0.10147361409506,1
362,120,12,0.104802920252489,1
362,121,12,0.093229561227308,1
362,122,12,0.0866662904764915,1
362,123,12,0.0901518669107559,1
362,124,12,0.0957984860609986,1
362,125,12,0.0904484806168706,1
362,126,12,0.0830810513748226,1
362,127,12,0.076508572283417,1
362,128,12,0.0815713745526849,1
362,129,12,0.0829438910043039,1
362,130,12,0.071223152314688,1
362,131,12,0.0567963053133581,1
362,132,12,0.051399374304233,1
362,133,12,0.0484469313280086,1
363,118,12,0.0961051630853732,1
363,119,12,0.113906653168187,1
363,120,12,0.123171803557373,1
363,121,12,0.107284169436794,1
363,122,12,0.0898760210744139,1
363,123,12,0.088064935738954,1
363,124,12,0.0956628219014038,1
363,125,12,0.0935215996475089,1
363,126,12,0.0846872886818703,1
363,127,12,0.07290221292253,1
363,128,12,0.0736276441455381,1
363,129,12,0.0734628645301283,1
363,130,12,0.065355608089697,1
363,131,12,0.0571575969248903,1
363,132,12,0.0544508878180563,1
363,133,12,0.0517897351565709,1
363,134,12,0.0481662184735072,1
364,118,12,0.094885780066838,1
364,119,12,0.108315688442809,1
364,120,12,0.114495212864484,1
364,121,12,0.10201637471721,1
364,122,12,0.0857660509810707,1
364,123,12,0.084448923218014,1
364,124,12,0.0937675905878882,1
364,125,12,0.0931678641899858,1
364,126,12,0.0843769317873858,1
364,127,12,0.0728940790809055,1
364,128,12,0.068220528503754,1
364,129,12,0.0638758266016551,1
364,130,12,0.0598523247905813,1
364,131,12,0.057831278891313,1
364,132,12,0.0566346567648236,1
364,133,12,0.0551794905460729,1
364,134,12,0.0534374446575264,1
364,135,12,0.0489299792697955,1
365,119,12,0.10034157744397,1
365,120,12,0.100328117322532,1
365,121,12,0.0934554717461768,1
365,122,12,0.0849834402378927,1
365,123,12,0.0857292696105997,1
365,124,12,0.0932670762610505,1
365,125,12,0.0907320443597539,1
365,126,12,0.0812320292936609,1
365,127,12,0.0719158748649135,1
365,128,12,0.0659146421719723,1
365,129,12,0.060530512720404,1
365,130,12,0.0585480910150997,1
365,131,12,0.0595641568774034,1
365,132,12,0.0585675821952425,1
365,133,12,0.0576074942628688,1
365,134,12,0.0579409817694729,1
365,135,12,0.0537604875720446,1
366,120,12,0.0889963761424812,1
366,121,12,0.0855667372000138,1
366,122,12,0.0829541738438576,1
366,123,12,0.0821772417699387,1
366,124,12,0.0846291617540112,1
366,125,12,0.0806193164781649,1
366,126,12,0.0735346999851003,1
366,127,12,0.0672928892847359,1
366,128,12,0.0624452756521955,1
366,129,12,0.0580912498719844,1
366,130,12,0.0580941209794328,1
366,131,12,0.0613289983192525,1
366,132,12,0.0620059673282068,1
366,133,12,0.0621709375805297,1
366,134,12,0.0619188289283035,1
367,121,12,0.0817591519120628,1
367,123,12,0.0771768008787507,1
367,124,12,0.0771463278570396,1
367,125,12,0.0745924055707202,1
367,126,12,0.0696810729942039,1
367,127,12,0.0637581169731461,1
367,128,12,0.0582341871186568,1
367,129,12,0.054845338698711,1
367,130,12,0.0553136931560008,1
367,131,12,0.0587801307995677,1
367,132,12,0.0616467611689661,1
367,133,12,0.0654412849399334,1
368,126,12,0.0656147183158215,1
368,127,12,0.0583320936157107,1
368,128,12,0.052840606697701,1
368,129,12,0.05039032156958,1
368,130,12,0.0500842568940778,1
368,131,12,0.0518880344812032,1
368,132,12,0.0543643733207776,1
368,133,12,0.0592007798135797,1
369,125,12,0.0688912873708429,1
369,126,12,0.0627825123514234,1
369,127,12,0.0549418414148596,1
369,128,12,0.0492231384039702,1
370,125,12,0.0611040640924537,1
370,126,12,0.0575915327540559,1
370,127,12,0.0528078922480422,1
370,128,12,0.0479769477916435,1
371,124,12,0.0603853109382793,1
371,125,12,0.055835564593979,1
371,126,12,0.0547964432189456,1
371,127,12,0.0526432974926694,1
372,125,12,0.0567200043331193,1
372,126,12,0.0560207308053354,1
372,127,12,0.0537704815677906,1
372,128,12,0.048489815968136,1
373,126,12,0.0572042105385749,1
353,125,13,0.0602609463484412,1
353,126,13,0.052993485948234,1
354,119,13,0.0982457960979004,1
354,120,13,0.0764136062163254,1
354,121,13,0.0655085162246109,1
354,122,13,0.0629433636910486,1
354,123,13,0.0633768547007504,1
354,124,13,0.0641012807473078,1
354,125,13,0.0631481481738232,1
354,126,13,0.0602636845877381,1
354,127,13,0.0582216512974032,1
355,118,13,0.10738854603514,1
355,119,13,0.113597960014035,1
355,120,13,0.0908878120483638,1
355,121,13,0.0747270183388551,1
355,122,13,0.0707411586527992,1
355,123,13,0.0708049931342982,1
355,124,13,0.0690780248925131,1
355,125,13,0.0694742954891563,1
355,126,13,0.0714033908506852,1
355,127,13,0.0746039419923993,1
355,128,13,0.0644888109303303,1
356,118,13,0.0992194076973501,1
356,119,13,0.104387874808346,1
356,120,13,0.0899554935596612,1
356,121,13,0.0832880021861548,1
356,122,13,0.0809811742235601,1
356,123,13,0.0811510490437375,1
356,124,13,0.0788434238722336,1
356,125,13,0.0789868637071314,1
356,126,13,0.0837525207976784,1
356,127,13,0.0902377401747815,1
356,128,13,0.077810154472744,1
357,118,13,0.115187086213915,1
357,119,13,0.106506532583985,1
357,120,13,0.0918455950071522,1
357,121,13,0.0905711236976148,1
357,122,13,0.0883066113528464,1
357,123,13,0.0848322593889488,1
357,124,13,0.081808526872549,1
357,125,13,0.0804126314031357,1
357,126,13,0.0808717486354556,1
357,127,13,0.0842700306941605,1
357,128,13,0.0745306912027696,1
358,118,13,0.132630409975195,1
358,119,13,0.114225120796791,1
358,120,13,0.0921099564137005,1
358,121,13,0.0906991854881913,1
358,122,13,0.08988458818175,1
358,123,13,0.0860707869750576,1
358,124,13,0.0827692329306712,1
358,125,13,0.0813557295427413,1
358,126,13,0.0777938347976097,1
358,127,13,0.0758612097647508,1
358,128,13,0.0663264987804783,1
359,120,13,0.0888130065396087,1
359,121,13,0.0855351781255858,1
359,124,13,0.0826734465471657,1
359,125,13,0.0840545647673777,1
359,126,13,0.0834699968925028,1
359,127,13,0.0818950644773323,1
359,128,13,0.0652236006927075,1
359,129,13,0.0560813360130644,1
359,130,13,0.0480306351901785,1
360,122,13,0.0813189597260226,1
360,123,13,0.0827497937424138,1
360,124,13,0.0847148848192568,1
360,125,13,0.0893057451911434,1
360,126,13,0.0932514498110546,1
360,127,13,0.093019652655385,1
360,128,13,0.075480658048122,1
360,129,13,0.0656270057314006,1
360,130,13,0.0563839518935029,1
361,120,13,0.0934422080385278,1
361,121,13,0.086834738408259,1
361,122,13,0.0847529255487293,1
361,123,13,0.0892057070267888,1
361,124,13,0.0904888783118138,1
361,125,13,0.0909018383036651,1
361,126,13,0.0861390118824334,1
361,127,13,0.084086435793118,1
361,128,13,0.0786875348692245,1
361,129,13,0.0816519388675252,1
361,130,13,0.0693112893747257,1
361,131,13,0.0542080106139239,1
362,119,13,0.0996239161193885,1
362,120,13,0.103485214801817,1
362,121,13,0.0962576899464608,1
362,122,13,0.0917516052321306,1
362,123,13,0.0959309036161951,1
362,124,13,0.0979593092556832,1
362,125,13,0.0980910104782366,1
362,126,13,0.0859337190345574,1
362,127,13,0.0787013011650989,1
362,128,13,0.0822930565830693,1
362,129,13,0.089354346050225,1
362,130,13,0.0755317198564451,1
362,131,13,0.0586280429810677,1
362,132,13,0.050047146241666,1
363,118,13,0.0961586107435477,1
363,119,13,0.110762010633889,1
363,120,13,0.126706593199591,1
363,121,13,0.112120778120262,1
363,122,13,0.0946535034304477,1
363,123,13,0.0941704872614797,1
363,124,13,0.099972446611497,1
363,125,13,0.103848118161796,1
363,126,13,0.0898011007675758,1
363,127,13,0.0780196471095839,1
363,128,13,0.0742708530902498,1
363,129,13,0.0752581038942985,1
363,130,13,0.0656688591991346,1
363,131,13,0.0587259725856262,1
363,132,13,0.0557353762308443,1
363,133,13,0.0541972194092687,1
363,134,13,0.0495636910301104,1
364,118,13,0.0963609631614616,1
364,119,13,0.114437940914296,1
364,120,13,0.13178214503453,1
364,121,13,0.113084545922746,1
364,122,13,0.0905030085508859,1
364,123,13,0.087779130568123,1
364,124,13,0.094292905044054,1
364,125,13,0.0971577330280924,1
364,126,13,0.0852801579277781,1
364,127,13,0.0774048661724249,1
364,128,13,0.0703113995050927,1
364,129,13,0.0658423907819173,1
364,130,13,0.060843971797383,1
364,131,13,0.0620143380217536,1
364,132,13,0.0661604309216863,1
364,133,13,0.0679534924035465,1
364,134,13,0.0612677345476419,1
364,135,13,0.0499247457897202,1
365,119,13,0.103326292938827,1
365,120,13,0.113172019381466,1
365,121,13,0.0996897725075414,1
365,122,13,0.0886957012924305,1
365,123,13,0.0866388849760181,1
365,124,13,0.0907589934870112,1
365,125,13,0.0893866503416768,1
365,126,13,0.0797817214277554,1
365,127,13,0.0742141472739245,1
365,128,13,0.0669616085448225,1
365,129,13,0.0617301388224933,1
365,130,13,0.0592367350907607,1
365,131,13,0.0668212708924192,1
365,132,13,0.0799038099283889,1
365,133,13,0.0858751646178629,1
365,134,13,0.0745141288988368,1
366,120,13,0.0918658198505665,1
366,121,13,0.0866260718647091,1
366,122,13,0.0860989550231833,1
366,123,13,0.0828499185599107,1
366,124,13,0.0839484897674424,1
366,125,13,0.0816969349558869,1
366,126,13,0.0740702337351821,1
366,127,13,0.0675953203051374,1
366,128,13,0.0614963370907984,1
366,129,13,0.0583525668647997,1
366,130,13,0.059370198260541,1
366,131,13,0.07078807844092,1
366,132,13,0.0875385525606997,1
366,133,13,0.0936061615606476,1
367,121,13,0.081580392256361,1
367,122,13,0.0808128476061919,1
367,123,13,0.0770283062772183,1
367,124,13,0.077831344054476,1
367,125,13,0.0773441858653058,1
367,126,13,0.0707524293381752,1
367,127,13,0.0628323090238688,1
367,128,13,0.0568428553814051,1
367,129,13,0.0544365727189473,1
367,130,13,0.0564238989921061,1
367,131,13,0.0655228659849768,1
367,132,13,0.0772147087400716,1
367,133,13,0.0814687021328042,1
368,125,13,0.0717913311919147,1
368,126,13,0.0647535478338286,1
368,127,13,0.0572493510488404,1
368,128,13,0.0525970940371916,1
368,129,13,0.0500517677425891,1
368,130,13,0.0502379853454054,1
368,131,13,0.053426457039082,1
368,132,13,0.0570533012028103,1
369,124,13,0.0702690896641426,1
369,125,13,0.0686168279847779,1
369,126,13,0.060957660720089,1
369,127,13,0.0546810616715266,1
369,128,13,0.0505411731365831,1
370,125,13,0.0627513403276977,1
370,126,13,0.0574777456244554,1
370,127,13,0.053649404020484,1
370,128,13,0.0501441573229161,1
371,124,13,0.0625000057768762,1
371,125,13,0.0592305538332762,1
371,126,13,0.0568590133040071,1
371,127,13,0.0539631866025276,1
371,128,13,0.0496345790773931,1
372,125,13,0.0600804940680263,1
372,126,13,0.0592930827407645,1
372,127,13,0.055295403566098,1
372,128,13,0.050626231861071,1
373,126,13,0.0589082561357819,1
373,127,13,0.05481501587578,1
354,119,14,0.0959211753567521,1
354,120,14,0.0686936257763659,1
354,121,14,0.0573879209771406,1
354,125,14,0.0567857278531206,1
354,126,14,0.0542609441301208,1
355,118,14,0.104415361185086,1
355,119,14,0.106643294350049,1
355,120,14,0.0814419378655838,1
355,121,14,0.0661392240093258,1
355,122,14,0.063476592467545,1
355,123,14,0.0638263187730174,1
355,124,14,0.0637623398696145,1
355,125,14,0.0631628041086252,1
355,126,14,0.0639519022837239,1
355,127,14,0.0667261719571761,1
356,119,14,0.09148693187427,1
356,120,14,0.0781343354318645,1
356,121,14,0.0733937557607009,1
356,122,14,0.0723692498823366,1
356,123,14,0.0733138500097421,1
356,124,14,0.0730965585900947,1
356,125,14,0.072252868935343,1
356,126,14,0.0756864245998427,1
356,127,14,0.0820471118576992,1
357,119,14,0.102619237958864,1
357,120,14,0.0844652255625199,1
357,121,14,0.0795668100810833,1
357,122,14,0.0781489567054096,1
357,123,14,0.0779754540070077,1
357,124,14,0.0774539234047226,1
357,125,14,0.0751916120497688,1
357,126,14,0.074580713173385,1
357,127,14,0.0773075258092341,1
358,120,14,0.0903167793943172,1
358,121,14,0.0811413496686754,1
358,124,14,0.0794134397960772,1
358,125,14,0.0767174236870039,1
358,126,14,0.0719021316765437,1
358,127,14,0.0696768905358686,1
358,128,14,0.0631116152090268,1
359,124,14,0.0799333297655346,1
359,125,14,0.0798983218960428,1
359,126,14,0.0756873893381604,1
359,127,14,0.0729023111294246,1
359,128,14,0.0621558541568922,1
359,129,14,0.0556430906342881,1
360,121,14,0.08038694163488,1
360,122,14,0.0771914163754197,1
360,123,14,0.0780548629466172,1
360,124,14,0.0797168297779202,1
360,125,14,0.0839831394706126,1
360,126,14,0.0822785104089141,1
360,127,14,0.080414404904115,1
360,128,14,0.0702740924388917,1
360,129,14,0.0681640826468556,1
360,130,14,0.0591583833194873,1
360,131,14,0.0481859927205815,1
361,120,14,0.0893322090608038,1
361,121,14,0.0837819886429388,1
361,122,14,0.0812998093815729,1
361,123,14,0.0837117244982806,1
361,124,14,0.0847030537768939,1
361,125,14,0.088586616540019,1
361,126,14,0.0814484021899999,1
361,127,14,0.0782316469106745,1
361,128,14,0.0764517798139495,1
361,129,14,0.0864791081353575,1
361,130,14,0.0753881355996434,1
361,131,14,0.0579589536311872,1
362,119,14,0.0930169548542212,1
362,120,14,0.0948218647090728,1
362,121,14,0.0908479862641598,1
362,122,14,0.0892646600479379,1
362,123,14,0.0918991004340883,1
362,124,14,0.0926379744479063,1
362,125,14,0.0980208907554823,1
362,126,14,0.085780527832712,1
362,127,14,0.0789372230103422,1
362,128,14,0.0797216823538894,1
362,129,14,0.0898339769697669,1
362,130,14,0.0783199522395609,1
362,131,14,0.0618266588692703,1
362,132,14,0.0499518740001383,1
363,119,14,0.098870403501397,1
363,120,14,0.11540676926029,1
363,121,14,0.102683187977886,1
363,122,14,0.0930627250439875,1
363,123,14,0.0938775245410942,1
363,124,14,0.0979666343346462,1
363,125,14,0.105555046420204,1
363,126,14,0.0925421071881346,1
363,127,14,0.0817774126175849,1
363,128,14,0.0745175719170245,1
363,129,14,0.0749300004362697,1
363,130,14,0.0669570274820325,1
363,131,14,0.0608620880810012,1
363,132,14,0.0583526592948181,1
363,133,14,0.0578221456501139,1
363,134,14,0.0500204339663311,1
364,119,14,0.108283014431284,1
364,120,14,0.130414966416477,1
364,121,14,0.110232201768075,1
364,122,14,0.0946973094823216,1
364,123,14,0.093457054610243,1
364,124,14,0.0934308391462572,1
364,125,14,0.0949285636116327,1
364,126,14,0.0850390715552534,1
364,127,14,0.0792259859417639,1
364,128,14,0.0715415390670262,1
364,129,14,0.0667610873966494,1
364,130,14,0.0625804198929365,1
364,131,14,0.064537151829985,1
364,132,14,0.0834542837893646,1
364,133,14,0.0966053943452794,1
364,134,14,0.0776814514489145,1
365,120,14,0.110882158104135,1
365,121,14,0.0961475306950848,1
365,122,14,0.0946220541166666,1
365,123,14,0.0952612539093276,1
365,124,14,0.0917215770298834,1
365,125,14,0.0864314431302128,1
365,126,14,0.0783758319625962,1
365,127,14,0.0735213554011851,1
365,128,14,0.067960083819238,1
365,129,14,0.0635796057231189,1
365,130,14,0.0613493271464376,1
365,131,14,0.0694607660452042,1
365,132,14,0.111717783239776,1
365,133,14,0.138172005516963,1
365,134,14,0.105337385280483,1
366,121,14,0.084330237297435,1
366,122,14,0.0889604959646903,1
366,123,14,0.0877704594770162,1
366,124,14,0.0862381488541081,1
366,125,14,0.0842248150845051,1
366,126,14,0.0755029394594471,1
366,127,14,0.0662747033088837,1
366,128,14,0.0619587875806591,1
366,129,14,0.0597439332633084,1
366,130,14,0.0609173612320404,1
366,131,14,0.0727640820368175,1
366,132,14,0.114986189568792,1
366,133,14,0.13719242062757,1
367,125,14,0.0826481842677454,1
367,126,14,0.0731244262406604,1
367,127,14,0.0614915827217239,1
367,128,14,0.0574778496082261,1
367,129,14,0.0560356929145736,1
367,130,14,0.0589518715507428,1
367,131,14,0.0668565156138333,1
367,132,14,0.0845537157514431,1
368,124,14,0.070644442192233,1
368,125,14,0.0721626514604498,1
368,126,14,0.0636288016004443,1
368,127,14,0.0561693005062577,1
368,128,14,0.0540006380906324,1
368,129,14,0.0518467644779608,1
368,130,14,0.0523698837211882,1
368,131,14,0.0543386719987696,1
369,124,14,0.0672298577890222,1
369,125,14,0.0654780316491475,1
369,126,14,0.0584830722739892,1
369,127,14,0.0551041485272755,1
369,128,14,0.0534557573549339,1
369,129,14,0.0505331894937386,1
369,130,14,0.0486427356568022,1
370,124,14,0.064916322873213,1
370,125,14,0.0617310226845448,1
370,126,14,0.0567482590343873,1
370,127,14,0.0545811217140666,1
370,128,14,0.0526284335903258,1
370,129,14,0.0504839936164132,1
371,123,14,0.0694294784839554,1
371,124,14,0.0635272556714135,1
371,125,14,0.0602465272655614,1
371,126,14,0.0571658809652947,1
371,127,14,0.0539819325656466,1
371,128,14,0.050662262237642,1
371,129,14,0.0496217832967126,1
372,124,14,0.0640145120674784,1
372,125,14,0.0611133764168135,1
372,126,14,0.0591985614931367,1
372,127,14,0.0540941599386856,1
372,128,14,0.0503775720039087,1
373,125,14,0.061312297370292,1
373,127,14,0.0529198596616544,1
355,119,15,0.0886405898939236,1
355,120,15,0.0701799697957186,1
355,121,15,0.0595987372580598,1
356,120,15,0.0728199617598528,1
356,121,15,0.0677666566749817,1
356,122,15,0.067385018905636,1
357,120,15,0.0828085734572783,1
357,121,15,0.073417729796739,1
357,124,15,0.0720424173370616,1
359,124,15,0.0765156547335816,1
359,125,15,0.0751781057133213,1
359,126,15,0.0697710998321841,1
359,127,15,0.0649553572253839,1
359,128,15,0.0586717161647902,1
359,129,15,0.0523552913320238,1
360,123,15,0.0743796374451012,1
360,124,15,0.0761885160138704,1
360,125,15,0.0784879900131214,1
360,126,15,0.0741148254422129,1
360,127,15,0.0697412622668499,1
360,128,15,0.0652746913854114,1
360,129,15,0.0647154031205853,1
360,130,15,0.0580996378961597,1
361,121,15,0.0804361952809669,1
361,122,15,0.0785331478540153,1
361,123,15,0.0784670661676925,1
361,124,15,0.0802013999265736,1
361,125,15,0.0835756963954881,1
361,126,15,0.0778429209142882,1
361,127,15,0.0730707532843159,1
361,128,15,0.0730690895439836,1
361,129,15,0.0806049031721613,1
361,130,15,0.0744553896221054,1
361,131,15,0.057845929049239,1
362,120,15,0.0891328548416138,1
362,121,15,0.0862190909396768,1
362,122,15,0.0866398728218404,1
362,123,15,0.0864488892961972,1
362,124,15,0.0876619812966009,1
362,125,15,0.0910442325239791,1
362,126,15,0.0836665088886252,1
362,127,15,0.0766979729449942,1
362,128,15,0.0757936029831234,1
362,129,15,0.081062021605332,1
362,130,15,0.075203154248324,1
362,131,15,0.0614223930760303,1
362,132,15,0.0497387881463308,1
363,119,15,0.0926335146995156,1
363,120,15,0.103193990921154,1
363,121,15,0.0940872829142371,1
363,122,15,0.0911467431913276,1
363,123,15,0.091857686008942,1
363,124,15,0.0940655387523944,1
363,125,15,0.098008216289201,1
363,126,15,0.0907252160921402,1
363,127,15,0.0803377919725638,1
363,128,15,0.0735448037414932,1
363,129,15,0.0708220926877133,1
363,130,15,0.0666715515931423,1
363,131,15,0.0628247702004881,1
363,132,15,0.0631344858617195,1
363,133,15,0.0646776916730536,1
363,134,15,0.0513977741095384,1
364,120,15,0.118655129829053,1
364,121,15,0.104125304233406,1
364,122,15,0.0962573433338916,1
364,123,15,0.0965582492589885,1
364,124,15,0.0914867123529762,1
364,125,15,0.0902586755739627,1
364,126,15,0.0848065696206931,1
364,127,15,0.0777426632286397,1
364,128,15,0.0711780406888033,1
364,129,15,0.0661986045193103,1
364,130,15,0.0633077979232084,1
364,131,15,0.0686083821918411,1
364,132,15,0.0991390166887944,1
364,133,15,0.126947835547772,1
365,121,15,0.0938917125489278,1
365,122,15,0.0975844246545613,1
365,123,15,0.101334703331067,1
365,124,15,0.0914766836959733,1
365,125,15,0.0862488302981164,1
365,126,15,0.0796651845051057,1
365,127,15,0.0726513000836677,1
365,128,15,0.0672468649124189,1
365,129,15,0.0637232881868151,1
365,130,15,0.0613633302942343,1
365,131,15,0.0723984519912938,1
365,132,15,0.131920374127137,1
365,133,15,0.182173801062502,1
366,125,15,0.0879448402605935,1
366,126,15,0.0780218249918939,1
366,127,15,0.0668935222824743,1
366,128,15,0.0622694275420751,1
366,129,15,0.0610163191205543,1
366,130,15,0.060377974305564,1
366,131,15,0.0705480087985983,1
366,132,15,0.118390132966127,1
367,125,15,0.0897594437136311,1
367,126,15,0.077076537416226,1
367,127,15,0.0624726233839073,1
367,128,15,0.0577012876241012,1
367,129,15,0.0577565896595211,1
367,130,15,0.0604362398784508,1
367,131,15,0.0650941524518541,1
368,124,15,0.0714363479291424,1
368,125,15,0.0752363770630842,1
368,126,15,0.0649378359600096,1
368,127,15,0.0567618173627202,1
368,128,15,0.0546331424838312,1
368,129,15,0.0541887505088273,1
368,130,15,0.0557253186894607,1
369,123,15,0.0730278773095027,1
369,124,15,0.0660166560279715,1
369,125,15,0.063959007841393,1
369,126,15,0.0580428107654352,1
369,127,15,0.0551940251664757,1
369,128,15,0.0540099850762492,1
369,129,15,0.0523393933688486,1
370,123,15,0.0707657450377096,1
370,124,15,0.0636830233600234,1
370,125,15,0.0598215513713102,1
370,126,15,0.0560782627149506,1
370,127,15,0.0540148203215899,1
370,128,15,0.0526980507248547,1
370,129,15,0.0522588406077606,1
371,123,15,0.068490481926419,1
371,124,15,0.0637652629689483,1
371,125,15,0.0601556743342913,1
371,126,15,0.0569169611487055,1
371,127,15,0.0533807215105727,1
371,128,15,0.050787562681417,1
372,124,15,0.064733611834222,1
372,125,15,0.0620009645534576,1
372,126,15,0.0586686833048094,1
372,127,15,0.0539463816697963,1
373,125,15,0.0628197963101197,1
373,126,15,0.0578165363033686,1
359,126,16,0.0656979977624541,1
360,124,16,0.0698616292583896,1
360,125,16,0.0722054985508822,1
360,126,16,0.0693958917259975,1
360,127,16,0.0633787321855004,1
360,128,16,0.0601933626743184,1
360,129,16,0.0572407492802474,1
360,130,16,0.05270546245696,1
361,123,16,0.0696439276805352,1
361,124,16,0.0711794386928325,1
361,125,16,0.0748635316992445,1
361,126,16,0.0732286757477311,1
361,127,16,0.0683660249065625,1
361,128,16,0.0679224416942201,1
361,129,16,0.0697403379666653,1
361,130,16,0.0672325382595575,1
361,131,16,0.0536751168962443,1
362,121,16,0.0790613854095149,1
362,122,16,0.0782649794860817,1
362,123,16,0.0761384478282458,1
362,124,16,0.077132665544936,1
362,125,16,0.0800213058124802,1
362,126,16,0.0779739058041985,1
362,127,16,0.0724972134660185,1
362,128,16,0.0707999441445398,1
362,129,16,0.070693661177063,1
362,130,16,0.0683452165986567,1
362,131,16,0.0577299755910807,1
362,132,16,0.0487664359058826,1
363,120,16,0.0899703574620048,1
363,121,16,0.0843904207932048,1
363,122,16,0.0827834787072664,1
363,123,16,0.0826878598531694,1
363,124,16,0.0827346409962625,1
363,125,16,0.0851017333308932,1
363,126,16,0.0827648944966797,1
363,127,16,0.0752020335343501,1
363,128,16,0.0701907378928692,1
363,129,16,0.0663730141872684,1
363,130,16,0.0642366040712096,1
363,131,16,0.0618807535375741,1
363,132,16,0.0642487066267517,1
363,133,16,0.0666144471723624,1
363,134,16,0.0493047021183851,1
364,121,16,0.0924879663048216,1
364,122,16,0.0890077623653803,1
364,123,16,0.0896115267997141,1
364,124,16,0.082373597790405,1
364,125,16,0.0813762374530871,1
364,126,16,0.0793998121452305,1
364,127,16,0.0731112318555252,1
364,128,16,0.0682140930637187,1
364,129,16,0.0647616701217008,1
364,130,16,0.0627963306391832,1
364,131,16,0.067711325755181,1
364,132,16,0.0949638949861891,1
364,133,16,0.125558751015344,1
365,125,16,0.0813141187038058,1
365,126,16,0.0759864524397643,1
365,127,16,0.0694738160084355,1
365,128,16,0.0654760732881314,1
365,129,16,0.0634213424240105,1
365,130,16,0.0606454783327399,1
365,131,16,0.0688049923948581,1
365,132,16,0.118425764738244,1
366,126,16,0.0763605513857293,1
366,127,16,0.0662396492243827,1
366,128,16,0.0626405051818117,1
366,129,16,0.0619772966918557,1
366,130,16,0.0587221714011171,1
366,131,16,0.0616296154005418,1
367,125,16,0.0917717607530311,1
367,126,16,0.078237753068769,1
367,127,16,0.0639855583641957,1
367,128,16,0.0594957297793621,1
367,129,16,0.0601633229183189,1
367,130,16,0.0604134096638912,1
368,124,16,0.0742778084491389,1
368,125,16,0.0778719266094562,1
368,126,16,0.0675356740588498,1
368,127,16,0.0592615352200888,1
368,128,16,0.0570595460059325,1
368,129,16,0.0577270120536139,1
369,124,16,0.0683924425612136,1
369,125,16,0.0650230448832775,1
369,126,16,0.0604447318863969,1
369,127,16,0.0575297779479723,1
369,128,16,0.0561326635576906,1
369,129,16,0.0554199299084684,1
370,124,16,0.0646347810369835,1
370,125,16,0.06053915492713,1
370,126,16,0.0581339929786461,1
370,127,16,0.0557994648948941,1
370,128,16,0.054515912336043,1
370,129,16,0.0552989274605518,1
371,124,16,0.0659264385530783,1
371,125,16,0.0626469983906085,1
371,126,16,0.0593497019039475,1
371,127,16,0.0555753509845091,1
371,128,16,0.0537884072144957,1
372,125,16,0.0658750705703191,1
372,126,16,0.0609382561930885,1
372,127,16,0.0562572765532033,1
373,126,16,0.0607100175931297,1
360,126,17,0.0657730509374437,1
360,129,17,0.050598502855533,1
361,124,17,0.0643975420639771,1
361,125,17,0.067531058334803,1
361,126,17,0.0676004732786665,1
361,127,17,0.0643763524822451,1
361,128,17,0.0622185274862843,1
361,129,17,0.0595211075963056,1
361,130,17,0.0552663343252923,1
362,123,17,0.067838093525499,1
362,124,17,0.0688791328234154,1
362,125,17,0.0714405708256108,1
362,126,17,0.0707827290536017,1
362,127,17,0.0671963403535781,1
362,128,17,0.0644561831338139,1
362,129,17,0.0618624292864144,1
362,130,17,0.0583401119198122,1
362,131,17,0.0519082824321222,1
363,121,17,0.0772703631649369,1
363,123,17,0.0745671721756806,1
363,124,17,0.0742248691560659,1
363,125,17,0.0753693607521437,1
363,126,17,0.0737008082820254,1
363,127,17,0.0681876118634298,1
363,128,17,0.0640421197586172,1
363,129,17,0.0611702151012904,1
363,130,17,0.0589323745937239,1
363,131,17,0.0584697045825694,1
363,132,17,0.0609723051011388,1
363,133,17,0.0625886057264463,1
364,126,17,0.0744803110658327,1
364,127,17,0.0680628082310041,1
364,128,17,0.0631850046436841,1
364,129,17,0.0602349272982447,1
364,130,17,0.0591466562608952,1
364,131,17,0.063715581834026,1
364,132,17,0.0808113282877635,1
365,126,17,0.0731163963828067,1
365,127,17,0.0662480892404434,1
365,128,17,0.0620752262964142,1
365,129,17,0.0592201496793233,1
365,130,17,0.0577695703002386,1
365,131,17,0.0635612294800738,1
366,127,17,0.0645998309362532,1
366,128,17,0.0611681758640081,1
366,129,17,0.0591053804807766,1
366,130,17,0.0564287862293322,1
367,126,17,0.0742598250336723,1
367,127,17,0.0626438442162286,1
367,128,17,0.0587704429782579,1
367,129,17,0.0585300382771192,1
368,125,17,0.0738867485947864,1
368,126,17,0.067093615941812,1
368,127,17,0.0593279924033616,1
368,128,17,0.0568844604434644,1
368,129,17,0.0579241363986085,1
369,125,17,0.063924554552012,1
369,126,17,0.0608220601061318,1
369,127,17,0.0572292648504538,1
369,128,17,0.0554970396513688,1
369,129,17,0.0564029058241634,1
370,125,17,0.060609788791862,1
370,126,17,0.0588601520880496,1
370,127,17,0.0559485545146703,1
370,128,17,0.0543359857513581,1
371,125,17,0.0631434631272625,1
371,126,17,0.0594481629811121,1
371,127,17,0.0558868690311005,1
372,126,17,0.060524990026801,1
362,129,18,0.0509242204637103,1
363,128,18,0.0556551296441925,1
363,129,18,0.0525728600417266,1
363,130,18,0.0502607808987082,1
363,131,18,0.0519129905861875,1
364,127,18,0.0624528375830807,1
364,128,18,0.0571483134849112,1
364,129,18,0.053032410539758,1
364,130,18,0.0521230493568904,1
364,131,18,0.0567849479748398,1
365,129,18,0.0538881218737857,1
365,130,18,0.0525701218024297,1
366,128,18,0.0593764315099109,1
366,129,18,0.0555949172640419,1
367,128,18,0.0575467446332358,1
368,127,18,0.0586420345751121,1
368,128,18,0.0561177881015946,1
369,128,18,0.0550104764804424,1
371,126,18,0.0609451422294638,1
