x,y,z,signal,mito.p
567,280,1,0.0472670944625617,1
567,281,1,0.0496141990223123,1
568,280,1,0.0469827859957421,1
565,281,2,0.0471357970658324,1
566,280,2,0.0468208812075391,1
566,281,2,0.0497044075564159,1
566,282,2,0.0522738119235191,1
567,280,2,0.0494462078474579,1
567,281,2,0.052305733813433,1
567,282,2,0.0542059923180366,1
568,279,2,0.0488112907189622,1
568,280,2,0.0506766301621533,1
568,281,2,0.0525185790116536,1
569,279,2,0.0479765698275378,1
569,280,2,0.0488215420809782,1
569,281,2,0.0494695063974942,1
570,280,2,0.0478729142907898,1
565,282,3,0.0478942108913415,1
565,292,3,0.0499956681955118,1
566,281,3,0.0473167491377811,1
566,282,3,0.0490243545208622,1
566,283,3,0.0478055728520923,1
566,292,3,0.0504157554344875,1
567,281,3,0.0476467457735855,1
567,282,3,0.0489128608916637,1
567,283,3,0.0479854923092925,1
567,292,3,0.047519788810437,1
568,278,3,0.0470535301732906,1
568,279,3,0.0481867975343346,1
568,280,3,0.0483400387135611,1
568,281,3,0.0488415788340094,1
568,282,3,0.0481984611911737,1
569,279,3,0.0478638105980905,1
569,280,3,0.0477133019648559,1
569,281,3,0.0476191758227092,1
562,281,4,0.0479671123420416,1
562,282,4,0.0471795810817154,1
563,281,4,0.0488657517987631,1
563,282,4,0.0492213797159717,1
564,280,4,0.0468869254059815,1
564,281,4,0.0511724348123828,1
564,282,4,0.051615268339468,1
564,292,4,0.0567517759823129,1
564,293,4,0.048781330509434,1
565,280,4,0.0492622068294551,1
565,281,4,0.053763722558335,1
565,282,4,0.05415147946368,1
565,283,4,0.0518461368357785,1
565,284,4,0.0485549146249083,1
565,291,4,0.0617885715837307,1
565,292,4,0.0589208709906935,1
565,293,4,0.0509737931005917,1
566,277,4,0.047117040294871,1
566,279,4,0.0475649592338654,1
566,280,4,0.0510179625492779,1
566,281,4,0.0545400647619153,1
566,282,4,0.0555622613192985,1
566,283,4,0.0536780759378558,1
566,284,4,0.049696905998577,1
566,291,4,0.0579055834601235,1
566,292,4,0.0555553637979421,1
566,293,4,0.0500843177402178,1
567,277,4,0.0507235206513745,1
567,278,4,0.0495350990067569,1
567,279,4,0.0505450134889976,1
567,280,4,0.0519524472566849,1
567,281,4,0.0532582245607447,1
567,282,4,0.0538773216861293,1
567,283,4,0.0524256666952002,1
567,284,4,0.0484067415994058,1
567,290,4,0.0529628909899387,1
567,291,4,0.0523225778022,1
567,292,4,0.0508437584277471,1
567,293,4,0.0481310190797291,1
567,297,4,0.0471909398439492,1
568,277,4,0.0542010564770659,1
568,278,4,0.0535712132550226,1
568,279,4,0.0545430964497842,1
568,280,4,0.0545499479493134,1
568,281,4,0.0539369774796791,1
568,282,4,0.052437695650293,1
568,283,4,0.0498679691303992,1
568,292,4,0.0468904431994006,1
568,293,4,0.0468180594942569,1
568,294,4,0.0469720485281759,1
568,295,4,0.0474822465048723,1
568,296,4,0.0495426350809662,1
569,277,4,0.0512551532941043,1
569,278,4,0.0519479141067025,1
569,279,4,0.0533491867022692,1
569,280,4,0.0533455739888314,1
569,281,4,0.0519190123992007,1
569,282,4,0.0493082631730577,1
569,294,4,0.0469881734258924,1
569,295,4,0.0494310263971997,1
570,279,4,0.047459218333071,1
570,280,4,0.0488321846285256,1
570,281,4,0.0493173294730225,1
570,295,4,0.0489934105947769,1
561,280,5,0.0469173803501525,1
561,281,5,0.0473785133062909,1
562,280,5,0.0494930408093951,1
562,281,5,0.0516354258997958,1
562,282,5,0.0511357669215355,1
562,283,5,0.0474708733608176,1
563,280,5,0.0495935582327987,1
563,281,5,0.0530706165820325,1
563,282,5,0.0542458242095061,1
563,283,5,0.0519687044671547,1
564,277,5,0.0487234005344055,1
564,278,5,0.0468742089998444,1
564,279,5,0.0477802464652936,1
564,280,5,0.0521382546314066,1
564,281,5,0.0560450590506065,1
564,282,5,0.0565981551230117,1
564,283,5,0.0545015099761515,1
564,284,5,0.0512625743137455,1
564,292,5,0.0605200259379018,1
564,293,5,0.0536755044682592,1
565,276,5,0.0509724412094168,1
565,277,5,0.0506188094889644,1
565,278,5,0.048944489392429,1
565,279,5,0.0498658118572477,1
565,280,5,0.0543833604401896,1
565,281,5,0.0579325119817827,1
565,282,5,0.0577727069394472,1
565,283,5,0.0561419234914735,1
565,284,5,0.0537893969852021,1
565,285,5,0.0515532999490999,1
565,290,5,0.0640902439709105,1
565,291,5,0.062862283823972,1
565,292,5,0.061514500097106,1
565,293,5,0.0553585687119687,1
565,294,5,0.0485363678285337,1
566,276,5,0.0533152225937718,1
566,277,5,0.0543766355006853,1
566,278,5,0.0522460550089697,1
566,279,5,0.052144824247244,1
566,280,5,0.0551580516107179,1
566,281,5,0.0575179761257169,1
566,282,5,0.0574997572348614,1
566,283,5,0.0563201430174303,1
566,284,5,0.0538941771803531,1
566,285,5,0.0513747582703525,1
566,290,5,0.0622285977793548,1
566,291,5,0.0605554167230434,1
566,292,5,0.0580343582854476,1
566,293,5,0.0544830207070609,1
566,294,5,0.0523728624011796,1
566,295,5,0.047011276383163,1
567,276,5,0.0558313854594957,1
567,277,5,0.0572715752627156,1
567,278,5,0.0548662387096952,1
567,279,5,0.0545946524017411,1
567,280,5,0.0559139313593651,1
567,281,5,0.0562935884231173,1
567,282,5,0.055258960219653,1
567,283,5,0.0535405972344564,1
567,284,5,0.0508533654841818,1
567,285,5,0.0485037843748533,1
567,289,5,0.0560999055632105,1
567,290,5,0.0587848764912223,1
567,291,5,0.0563373321699015,1
567,292,5,0.0528155348518695,1
567,293,5,0.0507987318225288,1
567,294,5,0.0519853931322548,1
567,295,5,0.0508593022998948,1
567,296,5,0.0499437037998382,1
567,297,5,0.0509205515992125,1
568,277,5,0.0597161971980071,1
568,278,5,0.0578722348935653,1
568,279,5,0.0579555286481272,1
568,280,5,0.0581720555925264,1
568,281,5,0.0565077912652413,1
568,282,5,0.0534239434078795,1
568,283,5,0.0503700039854902,1
568,284,5,0.047525127342396,1
568,290,5,0.0507363722466291,1
568,291,5,0.0492988862257592,1
568,292,5,0.0485740597050369,1
568,293,5,0.0485654823869865,1
568,294,5,0.0501585394420866,1
568,295,5,0.0514806544948138,1
568,296,5,0.0534151244752361,1
568,297,5,0.0543770324389451,1
569,277,5,0.0547953478375724,1
569,278,5,0.0548416342903112,1
569,279,5,0.0561561269779031,1
569,280,5,0.0566674524893667,1
569,281,5,0.0540011549177544,1
569,282,5,0.0504498576084665,1
569,294,5,0.0485582224437406,1
569,295,5,0.0522352053631997,1
569,296,5,0.054669374590981,1
570,278,5,0.047224924086996,1
570,279,5,0.0487825615933125,1
570,280,5,0.0503440591803881,1
570,281,5,0.0500961108334461,1
570,282,5,0.0502086514592141,1
570,295,5,0.0515917569384808,1
570,296,5,0.0547879900979437,1
571,295,5,0.0468715454865934,1
560,280,6,0.0476564765136809,1
561,279,6,0.0489369878345902,1
561,280,6,0.0531866318557565,1
561,281,6,0.0529273103647598,1
561,282,6,0.0506083165123555,1
561,283,6,0.0476109839374619,1
562,275,6,0.0484768558531941,1
562,276,6,0.0470408166435177,1
562,277,6,0.0468671475257285,1
562,278,6,0.0472766641262618,1
562,279,6,0.0500234308627896,1
562,280,6,0.0542829983404529,1
562,281,6,0.0566048052770468,1
562,282,6,0.0572464876141456,1
562,283,6,0.0545794882096681,1
562,284,6,0.0516115693351043,1
563,276,6,0.0506967647115674,1
563,277,6,0.0497450218189483,1
563,278,6,0.0478499436462726,1
563,279,6,0.0487795874327276,1
563,280,6,0.0534285973651583,1
563,281,6,0.0580305212156021,1
563,282,6,0.0605887365259595,1
563,283,6,0.0583899919553846,1
563,284,6,0.054909349656355,1
563,292,6,0.0599630640320091,1
563,293,6,0.0521344003033759,1
564,276,6,0.0536294711355702,1
564,277,6,0.0527964012771978,1
564,278,6,0.0499043896539251,1
564,279,6,0.050067916711538,1
564,280,6,0.0550689418477395,1
564,281,6,0.060458247387571,1
564,282,6,0.0625979574592638,1
564,283,6,0.0605172933919099,1
564,284,6,0.0570428295231863,1
564,285,6,0.0539708610499788,1
564,290,6,0.0693380093810893,1
564,291,6,0.0684257934853342,1
564,292,6,0.0676558080466404,1
564,293,6,0.0591628710164657,1
564,294,6,0.0491994042934683,1
565,275,6,0.0548888584377799,1
565,276,6,0.0561102949907082,1
565,277,6,0.056041762737231,1
565,278,6,0.0527550334072444,1
565,279,6,0.051856624059659,1
565,280,6,0.0564742528586458,1
565,281,6,0.0614178600126468,1
565,282,6,0.0627749804177125,1
565,283,6,0.0615867543658606,1
565,284,6,0.059118137800396,1
565,285,6,0.0565198202203341,1
565,286,6,0.0573908868498151,1
565,287,6,0.0631726377686409,1
565,288,6,0.0690572992458863,1
565,289,6,0.0721165139202221,1
565,290,6,0.0708812478082105,1
565,291,6,0.0683176652022521,1
565,292,6,0.0662803479434226,1
565,293,6,0.0598448339578495,1
565,294,6,0.0524609596839589,1
566,275,6,0.0557012932593671,1
566,276,6,0.0588577060328172,1
566,277,6,0.0609327957063476,1
566,278,6,0.0577469059525552,1
566,279,6,0.0549939953020919,1
566,280,6,0.0575187009694958,1
566,281,6,0.0603059323976175,1
566,282,6,0.0605869589328827,1
566,283,6,0.0598688515989363,1
566,284,6,0.0582992369120827,1
566,285,6,0.0560303493240774,1
566,286,6,0.0564787629977146,1
566,289,6,0.0681481898234695,1
566,290,6,0.0685621676648801,1
566,291,6,0.0647180507270989,1
566,292,6,0.0619734642746362,1
566,293,6,0.0598535205777396,1
566,294,6,0.0574845757846031,1
566,295,6,0.0511934207656007,1
566,296,6,0.0484783458098507,1
566,297,6,0.0485611448297699,1
567,275,6,0.0578634964991196,1
567,276,6,0.0608008453749444,1
567,277,6,0.0635214026808635,1
567,278,6,0.0609954314132107,1
567,279,6,0.0577230033660364,1
567,280,6,0.0585918494423535,1
567,281,6,0.0587511539973178,1
567,282,6,0.0572868084875295,1
567,283,6,0.0556389394361958,1
567,284,6,0.0536945977738322,1
567,285,6,0.0516137668773546,1
567,286,6,0.0514996902731027,1
567,289,6,0.061488998252091,1
567,290,6,0.0634782169487344,1
567,291,6,0.0597500002301091,1
567,292,6,0.056266032854062,1
567,293,6,0.056432010573975,1
567,294,6,0.057341890861998,1
567,295,6,0.0549481978312674,1
567,296,6,0.0558463770697166,1
567,297,6,0.0589164874116496,1
567,298,6,0.0600130034672845,1
568,276,6,0.0632843845178891,1
568,277,6,0.0647280547217935,1
568,278,6,0.0631262017449636,1
568,279,6,0.0611225034309272,1
568,280,6,0.0612510423943868,1
568,281,6,0.0588300123982803,1
568,282,6,0.0552595987725058,1
568,283,6,0.0525976330053818,1
568,284,6,0.0499679170336907,1
568,285,6,0.0476667508866105,1
568,290,6,0.0532209411279582,1
568,291,6,0.0522117342313112,1
568,292,6,0.051991191882486,1
568,293,6,0.0531548825476947,1
568,294,6,0.0546917757153863,1
568,295,6,0.0559944522988363,1
568,296,6,0.059402138496246,1
568,297,6,0.0615766295638695,1
568,298,6,0.0633081145225558,1
569,276,6,0.0577504783968941,1
569,277,6,0.0580884166742603,1
569,278,6,0.0582016016056095,1
569,279,6,0.0582974075444502,1
569,280,6,0.0587599959408748,1
569,281,6,0.0555879299934373,1
569,282,6,0.0523339164298844,1
569,283,6,0.0510576161061668,1
569,284,6,0.0488404685574274,1
569,292,6,0.0471738168478546,1
569,293,6,0.0496354438483084,1
569,294,6,0.0522352513850269,1
569,295,6,0.0570278666766074,1
569,296,6,0.0609000339180867,1
569,297,6,0.0600025622652312,1
570,277,6,0.0491380802086814,1
570,278,6,0.0501679163893852,1
570,279,6,0.0507292618743218,1
570,280,6,0.0517853880238319,1
570,281,6,0.0515581379936876,1
570,282,6,0.052651029830428,1
570,283,6,0.0543426196176323,1
570,293,6,0.0468909206758581,1
570,294,6,0.0513370433829357,1
570,295,6,0.057220933994575,1
570,296,6,0.0604561418889751,1
571,282,6,0.0509079703821929,1
571,295,6,0.0520263813221335,1
571,296,6,0.0555780410533108,1
560,274,7,0.0486644063046222,1
560,279,7,0.0500006040364824,1
560,280,7,0.0542405086884608,1
560,281,7,0.0521860885680861,1
560,282,7,0.0491228067147687,1
560,283,7,0.0473431627902482,1
561,274,7,0.0530929601791538,1
561,275,7,0.0511739995545087,1
561,276,7,0.0491351693281089,1
561,277,7,0.0493944505500069,1
561,278,7,0.0512692359732374,1
561,279,7,0.0551194738140405,1
561,280,7,0.0583534103554634,1
561,281,7,0.0575144151868348,1
561,282,7,0.0566265620958708,1
561,283,7,0.0562993066351509,1
561,284,7,0.0546381372757471,1
561,285,7,0.0491150060150528,1
562,275,7,0.0544969135461567,1
562,276,7,0.0526516453723672,1
562,277,7,0.0529252336298059,1
562,278,7,0.0536586834904058,1
562,279,7,0.0561456052376521,1
562,280,7,0.0587844910584192,1
562,281,7,0.0602896866926046,1
562,282,7,0.0615628805429839,1
562,283,7,0.0621433365916787,1
562,284,7,0.0612475504882456,1
562,285,7,0.0561096967069542,1
563,276,7,0.0540861514799239,1
563,277,7,0.0536598915633707,1
563,278,7,0.0525188206262466,1
563,279,7,0.0538522110266457,1
563,280,7,0.0575399227845783,1
563,281,7,0.061818433996876,1
563,282,7,0.0647624387794643,1
563,283,7,0.0650197295573345,1
563,284,7,0.0636916431725239,1
563,285,7,0.0595961320034866,1
563,290,7,0.0663747214528907,1
563,291,7,0.064949983478164,1
563,292,7,0.0650848964646953,1
563,293,7,0.0573388361632155,1
564,276,7,0.0572740834522998,1
564,277,7,0.0562220474926848,1
564,278,7,0.0530909179605703,1
564,279,7,0.0535423230529776,1
564,280,7,0.0586831740057675,1
564,281,7,0.0650136201597694,1
564,282,7,0.0683245569708801,1
564,283,7,0.067549940585821,1
564,284,7,0.0650396685139828,1
564,285,7,0.061723761345531,1
564,286,7,0.0614634906543475,1
564,287,7,0.0661574926756262,1
564,288,7,0.0737175097405197,1
564,289,7,0.0765376467751125,1
564,290,7,0.073050285289307,1
564,291,7,0.0707655546872771,1
564,292,7,0.0696564804255362,1
564,293,7,0.0617427798656347,1
564,294,7,0.0518291087597025,1
565,276,7,0.0622715764132613,1
565,277,7,0.0610995327864099,1
565,278,7,0.0556886832787054,1
565,279,7,0.0541706475547223,1
565,280,7,0.0594003436449839,1
565,281,7,0.065785026522379,1
565,282,7,0.0683522506054171,1
565,283,7,0.0680415342388588,1
565,284,7,0.0662584473063885,1
565,285,7,0.0634852525355726,1
565,286,7,0.0643455500574813,1
565,287,7,0.0689079296528758,1
565,288,7,0.0738651132459103,1
565,289,7,0.0769866414743184,1
565,290,7,0.07442060820606,1
565,291,7,0.0700859158481685,1
565,292,7,0.0681702400314421,1
565,293,7,0.0625288786965882,1
565,294,7,0.0549112423039999,1
565,295,7,0.0474523898444554,1
566,275,7,0.0621056792315459,1
566,276,7,0.0666313334088091,1
566,277,7,0.0674968774190223,1
566,278,7,0.0620830710089181,1
566,279,7,0.0580224558903797,1
566,280,7,0.0611031800162181,1
566,281,7,0.0648423499297247,1
566,282,7,0.0647708837847614,1
566,283,7,0.0641082269999015,1
566,284,7,0.0632117505690599,1
566,285,7,0.0613949756590556,1
566,286,7,0.0623582872884952,1
566,287,7,0.0659800670261892,1
566,288,7,0.0699314665959771,1
566,289,7,0.0744295134296294,1
566,290,7,0.0724460302032048,1
566,291,7,0.0663977438719636,1
566,292,7,0.0646692675902327,1
566,293,7,0.0634647613169974,1
566,294,7,0.0597044156102356,1
566,295,7,0.0542043527904415,1
566,296,7,0.0549237314773651,1
566,297,7,0.0575365056639063,1
567,276,7,0.068454580138268,1
567,277,7,0.0700699750377609,1
567,278,7,0.066350577251779,1
567,279,7,0.061415087197556,1
567,280,7,0.0628201680993262,1
567,281,7,0.063417042434886,1
567,282,7,0.0609208300312672,1
567,283,7,0.0589367715320022,1
567,284,7,0.0570657598986047,1
567,285,7,0.0554520390430773,1
567,286,7,0.056109109928657,1
567,288,7,0.0622549165118032,1
567,289,7,0.0670415432131151,1
567,290,7,0.0663518428520279,1
567,291,7,0.0614321900591012,1
567,292,7,0.0592402279553146,1
567,293,7,0.0603514767483922,1
567,294,7,0.0599800690971714,1
567,295,7,0.0573204504432362,1
567,296,7,0.0606719209786818,1
567,297,7,0.0660071796351574,1
567,298,7,0.0651281052077379,1
568,276,7,0.0687265001044696,1
568,277,7,0.0694655128534361,1
568,278,7,0.0671865752489091,1
568,279,7,0.0632251889426117,1
568,280,7,0.0642829373615318,1
568,281,7,0.0621721692664397,1
568,282,7,0.0584592778162827,1
568,283,7,0.0554783060009701,1
568,284,7,0.0524958844980998,1
568,285,7,0.0501248744754662,1
568,289,7,0.0539375412470627,1
568,290,7,0.0541112506339507,1
568,291,7,0.0530685398470787,1
568,292,7,0.0534231782950018,1
568,293,7,0.0557379841611279,1
568,294,7,0.0577052734570952,1
568,295,7,0.0590059193274186,1
568,296,7,0.0629928995223855,1
568,297,7,0.0678531956636394,1
569,276,7,0.0619864769462861,1
569,277,7,0.0616045130384439,1
569,278,7,0.061001132367059,1
569,279,7,0.0594007348305154,1
569,280,7,0.0606460221954068,1
569,281,7,0.0580665505535966,1
569,282,7,0.0559983584014226,1
569,283,7,0.054746248300644,1
569,284,7,0.0519005461410238,1
569,292,7,0.0478567146076041,1
569,293,7,0.0512905440792459,1
569,294,7,0.0552912215205428,1
569,295,7,0.0600865290890163,1
569,296,7,0.0643592645619965,1
570,277,7,0.0525506677306913,1
570,278,7,0.0526256200290674,1
570,279,7,0.0519511586455224,1
570,280,7,0.0530496191233578,1
570,281,7,0.0532455052782434,1
570,282,7,0.055180193862345,1
570,283,7,0.0564795050996787,1
570,293,7,0.0479815200503295,1
570,294,7,0.0538305347460193,1
570,295,7,0.0601881567890019,1
570,296,7,0.0641516716048087,1
571,281,7,0.048547349787057,1
571,282,7,0.0525177563714919,1
571,294,7,0.0499249786688831,1
571,295,7,0.0569494167193617,1
559,274,8,0.0494692877938148,1
559,280,8,0.0489247000067192,1
559,281,8,0.0480704399732705,1
560,273,8,0.0537313059337783,1
560,274,8,0.0534971756404628,1
560,275,8,0.0515739464913419,1
560,276,8,0.0498409082959866,1
560,277,8,0.0500768564514778,1
560,278,8,0.051751999188175,1
560,279,8,0.0546570407412828,1
560,280,8,0.0586772026736841,1
560,281,8,0.0578481424670093,1
560,282,8,0.0556402798219139,1
560,283,8,0.0542682828611954,1
560,284,8,0.0504823202548505,1
561,273,8,0.0574331521453995,1
561,274,8,0.0574542416477287,1
561,275,8,0.0552524481310996,1
561,276,8,0.0543117792406583,1
561,277,8,0.0549599736663105,1
561,278,8,0.0570519303395214,1
561,279,8,0.0594350383499886,1
561,280,8,0.0625160558649756,1
561,281,8,0.0624476961933506,1
561,282,8,0.0629350328273694,1
561,283,8,0.0645584930520847,1
561,284,8,0.0626823327267657,1
561,285,8,0.0546948246614404,1
562,274,8,0.0608063910051259,1
562,275,8,0.0573568134394781,1
562,276,8,0.0564803795143961,1
562,277,8,0.0573625431569685,1
562,278,8,0.0596941930118617,1
562,279,8,0.0623873213087503,1
562,280,8,0.0646417465375478,1
562,281,8,0.0652525539813023,1
562,282,8,0.0669567882655386,1
562,283,8,0.0697488922546185,1
562,284,8,0.0702496097349051,1
562,285,8,0.0638246117368546,1
562,286,8,0.056351662216356,1
562,293,8,0.0571430190410708,1
563,275,8,0.0564566437570011,1
563,276,8,0.056185742023727,1
563,277,8,0.0562324139092689,1
563,278,8,0.0572041532858204,1
563,279,8,0.0603305483224584,1
563,280,8,0.0640595934339739,1
563,281,8,0.0668488440697654,1
563,282,8,0.0691221094840861,1
563,283,8,0.0710109373173509,1
563,284,8,0.0718443293285139,1
563,285,8,0.0675883803170167,1
563,286,8,0.0633529052659095,1
563,287,8,0.0653719633647847,1
563,288,8,0.0698490875252315,1
563,289,8,0.0728762249859864,1
563,290,8,0.0729839103089813,1
563,291,8,0.0731410058162385,1
563,292,8,0.0731486972141147,1
563,293,8,0.063913151979721,1
563,294,8,0.0503865373269234,1
564,275,8,0.0570242884795401,1
564,276,8,0.0584168456915746,1
564,277,8,0.0579396568704605,1
564,278,8,0.0563953081667573,1
564,279,8,0.05887705245844,1
564,280,8,0.064905330800292,1
564,281,8,0.0707509485098593,1
564,282,8,0.0729481053273947,1
564,283,8,0.072583733263012,1
564,284,8,0.0717913812162833,1
564,285,8,0.0694213664156636,1
564,286,8,0.0689910105564867,1
564,287,8,0.0735440362154963,1
564,288,8,0.0784285801069731,1
564,289,8,0.079784791580951,1
564,290,8,0.0795452192065653,1
564,291,8,0.0793112097205463,1
564,292,8,0.0774890732676694,1
564,293,8,0.0660300352251066,1
564,294,8,0.05412340039634,1
565,275,8,0.060233137372393,1
565,276,8,0.0634957742758235,1
565,277,8,0.0625118678786975,1
565,278,8,0.0581865812317466,1
565,279,8,0.0582903316885132,1
565,280,8,0.0641871601863332,1
565,281,8,0.070358319043556,1
565,282,8,0.071977303645573,1
565,283,8,0.0712011800456721,1
565,284,8,0.070286571014901,1
565,285,8,0.0692024578417052,1
565,286,8,0.0701192356510846,1
565,287,8,0.07422747760808,1
565,288,8,0.0781659795607861,1
565,289,8,0.0802415639689592,1
565,290,8,0.0788903861323348,1
565,291,8,0.0753790932963686,1
565,292,8,0.0736382313903838,1
565,293,8,0.0656818283275392,1
565,294,8,0.0563880022016842,1
565,295,8,0.0487453586987236,1
566,275,8,0.0647237401754904,1
566,276,8,0.0693685563689146,1
566,277,8,0.0696827991579846,1
566,278,8,0.0652591235971396,1
566,279,8,0.0632705722169911,1
566,280,8,0.0664922842105554,1
566,281,8,0.0698886605439228,1
566,282,8,0.0687341742441605,1
566,283,8,0.066729946679111,1
566,284,8,0.0656333500852784,1
566,285,8,0.0654899000497956,1
566,286,8,0.0669819449468494,1
566,287,8,0.0702203168418718,1
566,288,8,0.0745246578047036,1
566,289,8,0.0779113407907102,1
566,290,8,0.0741523584805802,1
566,291,8,0.0677815684422808,1
566,292,8,0.0672629714821145,1
566,293,8,0.0646531599507014,1
566,294,8,0.0579128318979125,1
566,295,8,0.0527797011066409,1
566,296,8,0.0556940218106644,1
566,297,8,0.0629562201260814,1
567,275,8,0.0691460868560741,1
567,276,8,0.0724744199178786,1
567,277,8,0.0732861989284278,1
567,278,8,0.0697810672645822,1
567,279,8,0.0667835218387377,1
567,280,8,0.0683379608280615,1
567,281,8,0.0691560218180279,1
567,282,8,0.0660112985886946,1
567,283,8,0.0621128931529646,1
567,284,8,0.0588852098273169,1
567,285,8,0.0577978003407456,1
567,286,8,0.0595483555940912,1
567,287,8,0.0617256252295339,1
567,288,8,0.065670990187226,1
567,289,8,0.0690030625224932,1
567,290,8,0.0658486804621696,1
567,291,8,0.0616835900430856,1
567,292,8,0.0618712095272546,1
567,293,8,0.0617038971743519,1
567,294,8,0.0574617317001107,1
567,295,8,0.0549420826809739,1
567,296,8,0.059663899144086,1
567,297,8,0.0679893224758639,1
567,298,8,0.0695375312603261,1
568,276,8,0.0727457013312274,1
568,277,8,0.0730836338558652,1
568,278,8,0.069511615218866,1
568,279,8,0.0662419829976962,1
568,280,8,0.0682053489328919,1
568,281,8,0.0678048612395887,1
568,282,8,0.0643802102461155,1
568,283,8,0.0599839982106714,1
568,284,8,0.0553282173169091,1
568,285,8,0.0528420031552565,1
568,286,8,0.0548233981412704,1
568,289,8,0.0554680431334974,1
568,290,8,0.0542599068886391,1
568,291,8,0.054470278413646,1
568,292,8,0.0560343647285034,1
568,293,8,0.0568120415650735,1
568,294,8,0.056645045612233,1
568,295,8,0.0577703483208016,1
568,296,8,0.0622591390144518,1
568,297,8,0.0709345180732318,1
569,276,8,0.0674087973944282,1
569,277,8,0.0668491777280128,1
569,278,8,0.063795842342106,1
569,279,8,0.0611628473152247,1
569,280,8,0.0629930663515092,1
569,281,8,0.0623218149904137,1
569,282,8,0.061157071575907,1
569,283,8,0.0595244702657576,1
569,284,8,0.0556090252484949,1
569,291,8,0.0475299337469775,1
569,292,8,0.0501902024592224,1
569,293,8,0.0522406589497267,1
569,294,8,0.0554779550845375,1
569,295,8,0.0595781087053968,1
569,296,8,0.0641890700921633,1
570,277,8,0.0579528938985182,1
570,278,8,0.0566636326777064,1
570,279,8,0.0555719489139309,1
570,280,8,0.0568076234696592,1
570,281,8,0.0573271868881973,1
570,282,8,0.0589837195485075,1
570,293,8,0.0485362700321509,1
570,294,8,0.0538446807051648,1
570,295,8,0.0598994215976753,1
571,278,8,0.0476698602363129,1
571,279,8,0.0488061420270406,1
571,280,8,0.050938770490068,1
571,281,8,0.0525056353727446,1
571,282,8,0.0554730480072089,1
571,294,8,0.0507797248078819,1
571,295,8,0.0585993797638344,1
572,280,8,0.0473162716613235,1
572,281,8,0.0487110379210652,1
572,294,8,0.0469954563800519,1
558,274,9,0.0476013998919408,1
559,273,9,0.0533449009196082,1
559,274,9,0.0536509805870728,1
559,275,9,0.0509222141377212,1
559,276,9,0.048429568425713,1
559,277,9,0.0479709120191524,1
559,278,9,0.0481298742867767,1
559,279,9,0.0486567896922152,1
559,280,9,0.0516627513597149,1
559,281,9,0.051722269087783,1
559,282,9,0.0485591831493841,1
560,273,9,0.0590624168730746,1
560,274,9,0.0590208936794543,1
560,275,9,0.0563194296791082,1
560,276,9,0.0544895327956143,1
560,277,9,0.0550743551651677,1
560,278,9,0.0567822999592247,1
560,279,9,0.0581939102077333,1
560,280,9,0.060812857071852,1
560,281,9,0.0606165164514226,1
560,282,9,0.0585533291729602,1
560,283,9,0.0563119338739978,1
560,284,9,0.051702962931259,1
561,274,9,0.0624438993926039,1
561,275,9,0.0587561933873998,1
561,276,9,0.0572216013110698,1
561,277,9,0.0580756801335738,1
561,278,9,0.0604387513910097,1
561,279,9,0.0623529257456226,1
561,280,9,0.0650314363596367,1
561,281,9,0.0654522887114901,1
561,282,9,0.065917287501116,1
561,283,9,0.066643960647656,1
561,284,9,0.0635859655517419,1
561,285,9,0.0555625144393483,1
561,286,9,0.0495269876597072,1
562,274,9,0.0642696715698321,1
562,275,9,0.0602263779165182,1
562,276,9,0.0589507334038388,1
562,277,9,0.0593556046761858,1
562,278,9,0.0620447578377473,1
562,279,9,0.0654080272191495,1
562,280,9,0.0676998796989436,1
562,281,9,0.067964677787381,1
562,282,9,0.0697021743472494,1
562,283,9,0.0720085697244489,1
562,284,9,0.0720573528613151,1
562,285,9,0.0653918562996058,1
562,286,9,0.0587928842891607,1
562,287,9,0.0589586779217647,1
562,293,9,0.0594308388582537,1
563,275,9,0.0596318276832336,1
563,276,9,0.0584576555468728,1
563,277,9,0.0571584075895516,1
563,278,9,0.0584361173317281,1
563,279,9,0.0631787931880332,1
563,280,9,0.0674855157804243,1
563,281,9,0.0694108791917831,1
563,282,9,0.0719688931566463,1
563,283,9,0.0741175947428346,1
563,284,9,0.0756059866573519,1
563,285,9,0.0703158869188479,1
563,286,9,0.0649069128006031,1
563,287,9,0.0659880403077572,1
563,288,9,0.0690677231897544,1
563,289,9,0.0740090119942086,1
563,290,9,0.0764680157505102,1
563,291,9,0.0763029699725986,1
563,292,9,0.0728606178338262,1
563,293,9,0.0629780574831031,1
563,294,9,0.04922232316343,1
564,275,9,0.0601031314631904,1
564,276,9,0.0601418588308063,1
564,277,9,0.0582779000424321,1
564,278,9,0.0572815274828546,1
564,279,9,0.0611707458113234,1
564,280,9,0.0676148946422309,1
564,281,9,0.0725926557447666,1
564,282,9,0.0753393707067388,1
564,283,9,0.0749939596351758,1
564,284,9,0.0751595749331993,1
564,285,9,0.0719838157341264,1
564,286,9,0.0696817118923163,1
564,287,9,0.0714692054147441,1
564,288,9,0.0738100826459973,1
564,289,9,0.0759221623631656,1
564,290,9,0.0791692784053621,1
564,291,9,0.0807660114539124,1
564,292,9,0.0773400948601903,1
564,293,9,0.0637303647874114,1
564,294,9,0.0528235253916227,1
565,275,9,0.0631796100754666,1
565,276,9,0.0651528189289616,1
565,277,9,0.0629009018897483,1
565,278,9,0.0592323064483023,1
565,279,9,0.0607874645286767,1
565,280,9,0.0667373907096658,1
565,281,9,0.0718655108744976,1
565,282,9,0.0739162837650641,1
565,283,9,0.0726064910565783,1
565,284,9,0.0721575308737428,1
565,285,9,0.0710743323843633,1
565,286,9,0.0704552985389911,1
565,287,9,0.0713591787312887,1
565,288,9,0.0732823273422119,1
565,289,9,0.0740396222620464,1
565,290,9,0.0749486166298952,1
565,291,9,0.0739205637949967,1
565,292,9,0.0728405925862518,1
565,293,9,0.0628733405679646,1
565,294,9,0.054118516329925,1
565,296,9,0.0467953621043388,1
565,297,9,0.0538385310385009,1
566,275,9,0.0671714973477621,1
566,276,9,0.0716986817507808,1
566,277,9,0.0705484869864079,1
566,278,9,0.0660524593604255,1
566,279,9,0.0661467926007947,1
566,280,9,0.0695873844046754,1
566,281,9,0.072206314010609,1
566,282,9,0.0713923719741799,1
566,283,9,0.0674548537380309,1
566,284,9,0.0657352309053138,1
566,285,9,0.0659691656058636,1
566,286,9,0.0672693512579146,1
566,287,9,0.0682588608125062,1
566,288,9,0.0706780671937086,1
566,289,9,0.0712914978816153,1
566,290,9,0.0690040519917787,1
566,291,9,0.0658860847022526,1
566,292,9,0.0667134708649618,1
566,293,9,0.0607501753431618,1
566,294,9,0.0527564255675182,1
566,295,9,0.0477806577853745,1
566,296,9,0.052789101064853,1
566,297,9,0.0632384087124842,1
567,275,9,0.0702167098811624,1
567,276,9,0.074899120154707,1
567,277,9,0.0750488694277922,1
567,278,9,0.0707646917780165,1
567,279,9,0.0701084032634998,1
567,280,9,0.072710356567913,1
567,281,9,0.0741269947010468,1
567,282,9,0.0718272954997096,1
567,283,9,0.0652286053729563,1
567,284,9,0.0603658700748591,1
567,285,9,0.0587245246175356,1
567,286,9,0.0610598217022369,1
567,287,9,0.0625130356825635,1
567,288,9,0.0644519985438694,1
567,289,9,0.0649906725261657,1
567,290,9,0.0624169938818583,1
567,291,9,0.0614023391514127,1
567,292,9,0.0630513299847852,1
567,293,9,0.0589823734100609,1
567,294,9,0.0526199823552314,1
567,295,9,0.0504304191391893,1
567,296,9,0.0565863677825119,1
567,297,9,0.0647039910588794,1
567,298,9,0.0667528597963442,1
568,276,9,0.0734687617643296,1
568,277,9,0.0740597165423617,1
568,278,9,0.069638152232841,1
568,279,9,0.0676031763344719,1
568,280,9,0.0706928459529786,1
568,281,9,0.0719189882377414,1
568,282,9,0.0701589985098132,1
568,283,9,0.0640272573476148,1
568,284,9,0.0576910066906532,1
568,285,9,0.0541909259223465,1
568,286,9,0.0574860714939882,1
568,287,9,0.0589617901478313,1
568,288,9,0.0578879455948367,1
568,289,9,0.0561264026302395,1
568,290,9,0.0542045426304788,1
568,291,9,0.0557176770298617,1
568,292,9,0.0575048426467705,1
568,293,9,0.0554993782451141,1
568,294,9,0.0536231834034246,1
568,295,9,0.0547264819258478,1
568,296,9,0.0609948791512839,1
568,297,9,0.0686630705210867,1
569,276,9,0.0678948569227413,1
569,277,9,0.0678301042118256,1
569,278,9,0.0642990795174335,1
569,279,9,0.0618745230988153,1
569,280,9,0.0643729618083265,1
569,281,9,0.0650589804232351,1
569,282,9,0.0653681032840255,1
569,283,9,0.0634568685736271,1
569,284,9,0.0591230966522802,1
569,285,9,0.0549061914084612,1
569,289,9,0.0493808453473313,1
569,290,9,0.0486484539887578,1
569,291,9,0.050620512296572,1
569,292,9,0.0520520557490006,1
569,293,9,0.051910331532039,1
569,294,9,0.0536370359734215,1
569,295,9,0.0574511927016745,1
570,277,9,0.0591162106363806,1
570,278,9,0.0577654642543866,1
570,279,9,0.0572369726013654,1
570,280,9,0.0590631187059399,1
570,281,9,0.0593307126203816,1
570,282,9,0.0605567801196752,1
570,283,9,0.061477550322567,1
570,292,9,0.0468624763102644,1
570,293,9,0.048969036284529,1
570,294,9,0.0524832745174381,1
570,295,9,0.058148043704168,1
571,277,9,0.0504508355722952,1
571,278,9,0.0508600961764146,1
571,279,9,0.053104154988628,1
571,280,9,0.055979966928715,1
571,281,9,0.056710287305063,1
571,282,9,0.0587274700144785,1
571,293,9,0.0472763736134774,1
571,294,9,0.0517939308255119,1
571,295,9,0.0586646157039361,1
572,279,9,0.0490647962015425,1
572,280,9,0.0523390190999787,1
572,281,9,0.0537791053540873,1
572,294,9,0.0494967340610305,1
558,274,10,0.0530207001576708,1
558,275,10,0.053336156772434,1
558,276,10,0.0513955198671626,1
558,277,10,0.0483388766624235,1
559,274,10,0.061215392736467,1
559,275,10,0.0588589371166957,1
559,276,10,0.0564413990267304,1
559,277,10,0.0546674301687805,1
559,278,10,0.0534391133526809,1
559,279,10,0.0518428577805882,1
559,280,10,0.0533682339860149,1
559,281,10,0.0534645174013131,1
559,282,10,0.0512397532401667,1
559,283,10,0.0476023951139546,1
560,274,10,0.0673672626953511,1
560,275,10,0.0631972421880249,1
560,276,10,0.0611420281911305,1
560,277,10,0.0609886374409655,1
560,278,10,0.0612470500008744,1
560,279,10,0.0600560281230182,1
560,280,10,0.0619517534776394,1
560,281,10,0.0625198469129939,1
560,282,10,0.0614228878972719,1
560,283,10,0.0588596907241166,1
560,284,10,0.0542562424006458,1
560,285,10,0.0480681647691867,1
561,274,10,0.069520244311472,1
561,275,10,0.0633539810261211,1
561,276,10,0.062076633705834,1
561,277,10,0.0625275785799689,1
561,278,10,0.0636137454772049,1
561,279,10,0.0634194758390009,1
561,280,10,0.0665490578871747,1
561,281,10,0.0677451018969277,1
561,282,10,0.0689060197470456,1
561,283,10,0.0684955453172331,1
561,284,10,0.0649003719484077,1
561,285,10,0.058171509083328,1
561,286,10,0.0545690009857875,1
562,274,10,0.0701647684964025,1
562,275,10,0.0641567340058043,1
562,276,10,0.0624655584150451,1
562,277,10,0.0620282532599561,1
562,278,10,0.0635079067800276,1
562,279,10,0.0657123350462657,1
562,280,10,0.0690523979212861,1
562,281,10,0.0693530527658658,1
562,282,10,0.0721019422591747,1
562,283,10,0.0736524463822702,1
562,284,10,0.074113343476544,1
562,285,10,0.0690858903060544,1
562,286,10,0.0657477545950493,1
562,293,10,0.0652180778799769,1
563,275,10,0.0639859470049455,1
563,276,10,0.061397317019516,1
563,277,10,0.0589786859111539,1
563,278,10,0.060172026138557,1
563,279,10,0.0645119304683826,1
563,280,10,0.0693258768768852,1
563,281,10,0.0701677829260862,1
563,282,10,0.0737710043619488,1
563,283,10,0.0757926339304205,1
563,284,10,0.0795628858354941,1
563,285,10,0.0767231032334015,1
563,291,10,0.0836554861239589,1
563,292,10,0.0782452118890948,1
563,293,10,0.0675133935022703,1
563,294,10,0.0527574725640877,1
564,275,10,0.0656012095916851,1
564,276,10,0.0634957742758235,1
564,277,10,0.0608375190185201,1
564,278,10,0.0611393186560522,1
564,279,10,0.0647553111489717,1
564,280,10,0.070441158332574,1
564,281,10,0.0732016740899874,1
564,282,10,0.077089948970998,1
564,283,10,0.0768318930802501,1
564,284,10,0.0802746881791096,1
564,285,10,0.0798616020106016,1
564,286,10,0.0757866108237815,1
564,287,10,0.0754181255585899,1
564,288,10,0.0787931305059364,1
564,289,10,0.0790810200461875,1
564,290,10,0.0829321207962512,1
564,291,10,0.0861620822023469,1
564,292,10,0.0819048675906009,1
564,293,10,0.0667899303781798,1
564,294,10,0.0550379979216543,1
565,275,10,0.0680931879871986,1
565,276,10,0.0680902368375273,1
565,277,10,0.0656431930035777,1
565,278,10,0.0640306514573732,1
565,279,10,0.0653218168312867,1
565,280,10,0.0702199429145255,1
565,281,10,0.0739831534800325,1
565,282,10,0.0772710045920579,1
565,283,10,0.0757585087455278,1
565,284,10,0.0769502209507925,1
565,285,10,0.0779622581898143,1
565,286,10,0.0748243807072819,1
565,287,10,0.073754476773244,1
565,288,10,0.0774827222555113,1
565,289,10,0.0750446296669584,1
565,290,10,0.0750115572313637,1
565,291,10,0.0777288239766356,1
565,292,10,0.0769647293318275,1
565,293,10,0.0650355438077171,1
565,294,10,0.0555268360177865,1
565,295,10,0.0472607233158542,1
565,296,10,0.0476203954011308,1
565,297,10,0.0541695602890539,1
566,275,10,0.0730089174193537,1
566,276,10,0.0764139573616975,1
566,277,10,0.0749275271275661,1
566,278,10,0.0712344883431314,1
566,279,10,0.0704329319309562,1
566,280,10,0.0739616958030855,1
566,281,10,0.076889984131674,1
566,282,10,0.0779780896983821,1
566,283,10,0.0735048658877933,1
566,284,10,0.0713974976551879,1
566,285,10,0.0722421995303933,1
566,286,10,0.0724977817479274,1
566,287,10,0.0719435121189278,1
566,288,10,0.0733061954123602,1
566,289,10,0.0695807917779244,1
566,290,10,0.0677735491388856,1
566,291,10,0.0700407741883821,1
566,292,10,0.0719043532966815,1
566,293,10,0.0634178478168626,1
566,294,10,0.0539036806876766,1
566,295,10,0.0475842653903894,1
566,296,10,0.0507955218000793,1
566,297,10,0.0602748734169642,1
567,276,10,0.0808440989892686,1
567,277,10,0.0801359898972885,1
567,278,10,0.0752057290731848,1
567,279,10,0.0734009543546313,1
567,280,10,0.0767166774357742,1
567,281,10,0.080284674915619,1
567,282,10,0.0811835847505755,1
567,283,10,0.0753469240391333,1
567,284,10,0.0697337165570887,1
567,285,10,0.0664218880730753,1
567,286,10,0.0672189976261942,1
567,287,10,0.0663711317503666,1
567,288,10,0.0661143587180528,1
567,289,10,0.0635854708170991,1
567,290,10,0.0618132277776704,1
567,291,10,0.0637484110964148,1
567,292,10,0.066429999420125,1
567,293,10,0.0608468211803494,1
567,294,10,0.0531790555124484,1
567,295,10,0.0494798958249919,1
567,296,10,0.0545199072015876,1
567,297,10,0.0613804212561934,1
568,276,10,0.0794892106428237,1
568,277,10,0.0795168870191755,1
568,278,10,0.075097675575572,1
568,279,10,0.0723312632715444,1
568,280,10,0.0751216587002884,1
568,281,10,0.0785795086893812,1
568,282,10,0.0805836902326035,1
568,283,10,0.0772113200348661,1
568,284,10,0.0712984529302558,1
568,285,10,0.0649624726515292,1
568,286,10,0.0652764910841914,1
568,287,10,0.0645758202700377,1
568,288,10,0.0630228022046296,1
568,289,10,0.0596004753134317,1
568,290,10,0.0562830781883232,1
568,291,10,0.0571200771601955,1
568,292,10,0.059319540821821,1
568,293,10,0.0569246224599403,1
568,294,10,0.0538108891785196,1
568,295,10,0.0529754722069583,1
568,296,10,0.0587374049764322,1
569,276,10,0.0737215308976742,1
569,277,10,0.0734994698285503,1
569,278,10,0.0711721000035897,1
569,279,10,0.0692848599233645,1
569,280,10,0.0709810979151192,1
569,281,10,0.0727973378213819,1
569,282,10,0.0753127413269565,1
569,283,10,0.0753428568601516,1
569,284,10,0.0719034846346925,1
569,285,10,0.0656459485604833,1
569,290,10,0.0508712334586047,1
569,291,10,0.051338429790481,1
569,292,10,0.052565314177208,1
569,293,10,0.0524006998539267,1
569,294,10,0.0530351797750637,1
569,295,10,0.0553289479134164,1
570,277,10,0.0660803083186294,1
570,278,10,0.0679951614951939,1
570,279,10,0.0720273006081324,1
570,280,10,0.0746588977220116,1
570,281,10,0.0722046284611866,1
570,282,10,0.0706086835364277,1
570,283,10,0.0704831302390098,1
570,290,10,0.0490563857126158,1
570,291,10,0.0481438102713355,1
570,292,10,0.0485722993701453,1
570,293,10,0.0495146768209226,1
570,294,10,0.0517904561775559,1
570,295,10,0.0563013085846355,1
571,278,10,0.0627964553528447,1
571,279,10,0.0736839080539118,1
571,280,10,0.0800038957476752,1
571,281,10,0.0745807238957293,1
571,282,10,0.0708115937726945,1
571,292,10,0.0470185392027731,1
571,293,10,0.0487659131973112,1
571,294,10,0.051377243449023,1
571,295,10,0.0560893723175027,1
572,279,10,0.0680192424162932,1
572,280,10,0.0745404547969011,1
572,281,10,0.0713787380078624,1
572,292,10,0.0485378290215483,1
572,293,10,0.0496032688383446,1
572,294,10,0.0501655002434555,1
557,275,11,0.053167003546442,1
557,276,11,0.0506881816407886,1
557,277,11,0.0468790901898953,1
558,275,11,0.062219686803057,1
558,276,11,0.0599880884005666,1
558,277,11,0.0551932237921802,1
558,278,11,0.0500338548066577,1
558,282,11,0.0479769811476187,1
559,275,11,0.0665273068210791,1
559,276,11,0.0645942692700294,1
559,277,11,0.06116992892389,1
559,278,11,0.0569844853517126,1
559,279,11,0.0528296175310026,1
559,280,11,0.05233220211682,1
559,281,11,0.0530832035517805,1
559,282,11,0.0535008228702709,1
559,283,11,0.0526583645591431,1
559,284,11,0.0491694038148413,1
560,275,11,0.070606865674252,1
560,276,11,0.0695329233248745,1
560,277,11,0.0680403089077087,1
560,278,11,0.0640875286831038,1
560,279,11,0.060054601446374,1
560,280,11,0.0600977986839598,1
560,281,11,0.0610043308840517,1
560,282,11,0.0612385704792069,1
560,283,11,0.0608511414793808,1
560,284,11,0.0582620455229506,1
560,285,11,0.0538676398442253,1
561,275,11,0.0704533426113337,1
561,276,11,0.0693058228656687,1
561,277,11,0.0684474294968618,1
561,278,11,0.065547513624762,1
561,279,11,0.0632578356763046,1
561,280,11,0.0657301685043182,1
561,281,11,0.0671886865002333,1
561,282,11,0.0684791385358248,1
561,283,11,0.0687857129379322,1
561,284,11,0.0664910416212201,1
561,285,11,0.0629677888629019,1
562,275,11,0.0703113365106803,1
562,276,11,0.0679296896932277,1
562,277,11,0.0663507728445447,1
562,278,11,0.0646386630751233,1
562,279,11,0.0652118016532881,1
562,280,11,0.06854425366863,1
562,281,11,0.0698772989053248,1
562,282,11,0.0729272631923869,1
562,283,11,0.0749348273399108,1
562,284,11,0.0741680346654812,1
562,285,11,0.0719111760325687,1
563,276,11,0.0655072502786622,1
563,277,11,0.0630451860708497,1
563,278,11,0.0628683184360679,1
563,279,11,0.066038158077613,1
563,280,11,0.0699251501001895,1
563,281,11,0.07104341722192,1
563,282,11,0.0750152907520979,1
563,283,11,0.0772653611654936,1
563,284,11,0.0792404626666335,1
563,292,11,0.0812434533950762,1
563,293,11,0.073565603194283,1
564,276,11,0.0675524085063064,1
564,277,11,0.0652991165650045,1
564,278,11,0.0651992491999105,1
564,279,11,0.0678299201245166,1
564,280,11,0.0713551057995786,1
564,281,11,0.0731296729412826,1
564,282,11,0.0771629510944451,1
564,283,11,0.0766312896880733,1
564,284,11,0.0794220187750646,1
564,291,11,0.0830471293425046,1
564,292,11,0.0830787981123687,1
564,293,11,0.071707028959695,1
564,294,11,0.0578481424670093,1
564,295,11,0.0476724202004527,1
565,276,11,0.0720601832036898,1
565,277,11,0.0700856914917607,1
565,278,11,0.0692319693384178,1
565,279,11,0.0697271872103501,1
565,280,11,0.0724844239125733,1
565,281,11,0.0748565499645172,1
565,282,11,0.0781236912542881,1
565,283,11,0.0757270470738862,1
565,284,11,0.0766628721670114,1
565,285,11,0.0793294803859575,1
565,286,11,0.0767401773313047,1
565,287,11,0.076008936518412,1
565,288,11,0.0816260903721417,1
565,289,11,0.0764519023582505,1
565,290,11,0.0737913805259559,1
565,291,11,0.0786522289291365,1
565,292,11,0.0811738626395727,1
565,293,11,0.0686481767072487,1
565,294,11,0.0566797978445217,1
565,295,11,0.047789422067098,1
565,296,11,0.0471059202708661,1
566,276,11,0.0785990967295969,1
566,277,11,0.0773488965346485,1
566,278,11,0.074498293050428,1
566,279,11,0.0729778699441571,1
566,280,11,0.0762259121756267,1
566,281,11,0.0793577838097053,1
566,282,11,0.0809652341912722,1
566,283,11,0.0757996350008882,1
566,284,11,0.0721931057461933,1
566,285,11,0.0731960191579662,1
566,286,11,0.0752641767937697,1
566,287,11,0.0747332402311768,1
566,288,11,0.0761195960019918,1
566,289,11,0.0702746053398206,1
566,290,11,0.0698844092776322,1
566,291,11,0.0753018284011741,1
566,292,11,0.0775132634906083,1
566,293,11,0.0661128112341121,1
566,294,11,0.0556870092347399,1
566,295,11,0.048435861910587,1
566,296,11,0.0499372952603961,1
567,277,11,0.0826458190090396,1
567,278,11,0.0793182338019276,1
567,279,11,0.077473034660879,1
567,280,11,0.0813485269793758,1
567,281,11,0.0863698477413868,1
567,282,11,0.0883620175877015,1
567,283,11,0.0827819918430913,1
567,284,11,0.0751027207183823,1
567,285,11,0.0707631557995326,1
567,286,11,0.0719390997762419,1
567,287,11,0.0703487407507633,1
567,288,11,0.0690427505957526,1
567,289,11,0.06665486782071,1
567,290,11,0.0680952647221524,1
567,291,11,0.0688943762247559,1
567,292,11,0.0689596121648575,1
567,293,11,0.0623786519470454,1
567,294,11,0.0554062530777097,1
567,295,11,0.0502305003216926,1
567,296,11,0.0534803374044242,1
567,297,11,0.0581529047596694,1
568,277,11,0.0808158761037185,1
568,278,11,0.0789685369477036,1
568,279,11,0.0771965872974234,1
568,280,11,0.079691971308152,1
568,281,11,0.0846899532510279,1
568,282,11,0.0883783553363689,1
568,283,11,0.0856407296852751,1
568,284,11,0.0780165294295779,1
568,285,11,0.0700245457415543,1
568,290,11,0.0651591699411197,1
568,291,11,0.0607855546228465,1
568,292,11,0.0593716145193342,1
568,293,11,0.0574818720022532,1
568,294,11,0.0546713132604532,1
568,295,11,0.0512878518023528,1
568,296,11,0.0552266931660348,1
569,277,11,0.0757651128777357,1
569,278,11,0.0763133018728122,1
569,279,11,0.075734433577157,1
569,280,11,0.0762985173608139,1
569,281,11,0.0797352145675651,1
569,282,11,0.0842514055066037,1
569,283,11,0.084510450866637,1
569,284,11,0.0790952638017159,1
569,291,11,0.0513416225547453,1
569,292,11,0.051938865064923,1
569,293,11,0.0530860914214394,1
569,294,11,0.0530752130120273,1
569,295,11,0.0526940314752481,1
570,278,11,0.0765327454505123,1
570,279,11,0.083018118333163,1
570,280,11,0.0846119922756965,1
570,281,11,0.0814600723831299,1
570,282,11,0.0788795652502069,1
570,291,11,0.0482697863942911,1
570,292,11,0.0493930929061035,1
570,293,11,0.0510242905505223,1
570,294,11,0.051890939084589,1
570,295,11,0.0541503174125424,1
571,278,11,0.0775900509093453,1
571,279,11,0.0953497589836908,1
571,280,11,0.102628755266048,1
571,281,11,0.0921137802236845,1
571,291,11,0.0515192840660468,1
571,292,11,0.051964850139124,1
571,293,11,0.0530405585761215,1
571,294,11,0.052947859110619,1
571,295,11,0.0547499127886374,1
572,279,11,0.0870539564504653,1
572,280,11,0.0965745838936491,1
572,292,11,0.0557711774040192,1
572,293,11,0.0571033884950955,1
572,294,11,0.0557214335615096,1
557,276,12,0.0584061168531011,1
557,277,12,0.0566172599340415,1
557,278,12,0.0523753073107513,1
558,276,12,0.0696053904445801,1
558,277,12,0.0662343721380176,1
558,278,12,0.0591465907950823,1
558,279,12,0.0498362313277941,1
558,282,12,0.0519640274989622,1
558,283,12,0.0510053755795299,1
559,275,12,0.0741491484581307,1
559,276,12,0.0727841985897071,1
559,277,12,0.068487997737567,1
559,278,12,0.0618011355425651,1
559,279,12,0.0555600810352334,1
559,280,12,0.0525807027256887,1
559,281,12,0.0530374923718821,1
559,282,12,0.0557432191439756,1
559,283,12,0.0567424277986563,1
559,284,12,0.0528042997732965,1
560,276,12,0.0741606941840376,1
560,277,12,0.0710189221043757,1
560,278,12,0.0652434128958683,1
560,279,12,0.0616331156040687,1
560,280,12,0.0612564672172718,1
560,281,12,0.0613557880731673,1
560,282,12,0.0617189578173136,1
560,283,12,0.0617229962326532,1
560,284,12,0.0612468659135655,1
561,275,12,0.0732692226269075,1
561,276,12,0.0709244680567099,1
561,277,12,0.0690361292053595,1
561,278,12,0.0655611590965363,1
561,279,12,0.0649653260048176,1
561,280,12,0.068299567118693,1
561,281,12,0.0695316289609836,1
561,282,12,0.0702245220863351,1
561,283,12,0.0691517187771816,1
561,284,12,0.0682694573382264,1
562,276,12,0.0702460603014798,1
562,277,12,0.0696192372618485,1
562,278,12,0.0679371854983381,1
562,279,12,0.0687958895144789,1
562,280,12,0.0727169607001208,1
562,281,12,0.0738425798087517,1
562,282,12,0.0762168401229335,1
562,283,12,0.0764147915073161,1
563,277,12,0.0686916270648843,1
563,278,12,0.0694973426996956,1
563,279,12,0.072238166867782,1
563,280,12,0.0758121241742534,1
563,281,12,0.0758225768817635,1
563,282,12,0.078719541604192,1
563,293,12,0.0811095471360157,1
564,277,12,0.0717037326463195,1
564,278,12,0.073152844931294,1
564,279,12,0.0755157953814335,1
564,280,12,0.0779144069949496,1
564,281,12,0.077518199331579,1
564,282,12,0.0796957048288862,1
564,283,12,0.0781775367921498,1
564,292,12,0.0867615049965898,1
564,293,12,0.0806135814093908,1
564,294,12,0.0642563770144904,1
565,277,12,0.0744256936179691,1
565,278,12,0.0754677543465315,1
565,279,12,0.0759120778302733,1
565,280,12,0.0771408203482748,1
565,281,12,0.0773824291885155,1
565,282,12,0.0790850354506135,1
565,283,12,0.0766604330101681,1
565,284,12,0.0766696028592441,1
565,291,12,0.0819546171858389,1
565,292,12,0.0879303558591769,1
565,293,12,0.0764697760854018,1
565,294,12,0.0602325275831821,1
565,295,12,0.0504504846558626,1
566,277,12,0.0792251086345232,1
566,278,12,0.0784682336638621,1
566,279,12,0.0764256641639997,1
566,280,12,0.078189001979859,1
566,281,12,0.0807931355683374,1
566,282,12,0.0828075627208472,1
566,283,12,0.0792526987199489,1
566,284,12,0.0743275290604828,1
566,285,12,0.0742916320352417,1
566,286,12,0.075829319079453,1
566,287,12,0.0752670243943297,1
566,288,12,0.0763231160274695,1
566,289,12,0.0725605210039017,1
566,290,12,0.0735215315419797,1
566,291,12,0.0794353305885916,1
566,292,12,0.0821442098558504,1
566,293,12,0.0702822392104127,1
566,294,12,0.0577100137053001,1
566,295,12,0.0513245484568421,1
567,277,12,0.0830575993081999,1
567,278,12,0.0818382682538674,1
567,279,12,0.0791191663882346,1
567,280,12,0.0815329134301817,1
567,281,12,0.0868918388113114,1
567,282,12,0.0893423515404886,1
567,283,12,0.0861593726672686,1
567,284,12,0.0793310163644413,1
567,285,12,0.0755803409941267,1
567,290,12,0.0744947263588175,1
567,291,12,0.0713037224294738,1
567,292,12,0.0687518753894597,1
567,293,12,0.0624471669423374,1
567,294,12,0.0558748760862302,1
567,295,12,0.0522663103656802,1
567,296,12,0.0543823191963484,1
568,278,12,0.0812262872535186,1
568,279,12,0.0794063023210648,1
568,280,12,0.0806617202406757,1
568,281,12,0.0859383068201587,1
568,282,12,0.0887437168700371,1
568,283,12,0.0882433675643684,1
568,284,12,0.0849750872343735,1
568,291,12,0.0640352363819112,1
568,292,12,0.0577970409805963,1
568,293,12,0.0564765021754518,1
568,294,12,0.0539018052982168,1
569,278,12,0.0795397023400258,1
569,279,12,0.0789790299243125,1
569,280,12,0.0788056311847583,1
569,281,12,0.083111122693271,1
569,282,12,0.0861508873928727,1
569,292,12,0.0518799973951646,1
569,293,12,0.05332240199882,1
569,294,12,0.05190661526949,1
570,279,12,0.092937283294721,1
570,280,12,0.0924887488137874,1
570,281,12,0.0892699131844251,1
570,292,12,0.0553500144048319,1
570,293,12,0.0547501256395883,1
570,294,12,0.0518612262423822,1
571,279,12,0.120125333543193,1
571,280,12,0.124697843693307,1
571,292,12,0.0653994211374571,1
571,293,12,0.0596354461493997,1
571,294,12,0.0531048223051229,1
557,277,13,0.0611604369220234,1
557,278,13,0.0566146251844325,1
557,279,13,0.0469165605863549,1
558,276,13,0.0729225632132808,1
558,277,13,0.070439835205041,1
558,278,13,0.0627811300843764,1
558,279,13,0.0522883605736529,1
558,282,13,0.0514222182796857,1
558,283,13,0.0506072522576007,1
559,276,13,0.0756275478834101,1
559,277,13,0.0711689762720663,1
559,278,13,0.0634749839153714,1
559,279,13,0.0569038493576734,1
559,280,13,0.0529775259309986,1
559,281,13,0.0524420907347937,1
559,282,13,0.0552077206677583,1
559,283,13,0.0558616390581725,1
559,284,13,0.0525893835928504,1
560,276,13,0.0736300797742353,1
560,277,13,0.0703701121367842,1
560,278,13,0.0647988535502618,1
560,279,13,0.0624434276688748,1
560,280,13,0.0617525479984647,1
560,281,13,0.0603636955435224,1
560,282,13,0.0611619441368652,1
560,283,13,0.0604837895016849,1
560,284,13,0.0617974365382013,1
561,276,13,0.0702285374907611,1
561,277,13,0.0690033846752838,1
561,278,13,0.0657018650805704,1
561,279,13,0.0659374047923449,1
561,280,13,0.0685034265551466,1
561,281,13,0.0689469446569119,1
561,282,13,0.0717071785306335,1
561,283,13,0.0695238857885518,1
561,284,13,0.0696521025992208,1
562,277,13,0.0733659317441076,1
562,278,13,0.0702639052649891,1
562,279,13,0.0702872440841242,1
562,280,13,0.0731179086116964,1
562,281,13,0.073037341650398,1
562,282,13,0.0764350065949278,1
562,283,13,0.0759349161620373,1
562,284,13,0.0759326208234041,1
563,278,13,0.074452104394072,1
563,279,13,0.0748621013474271,1
563,280,13,0.0766684177971929,1
563,281,13,0.0748859003848345,1
563,282,13,0.0779147349004686,1
563,283,13,0.0786446813494704,1
563,293,13,0.0896176253473497,1
564,277,13,0.0777293934967476,1
564,278,13,0.0772794323391698,1
564,279,13,0.077236534243461,1
564,280,13,0.0777797758921101,1
564,281,13,0.0756283417599299,1
564,282,13,0.0779530365661826,1
564,283,13,0.0770477239445124,1
564,292,13,0.0907860217443929,1
564,293,13,0.0979036597477452,1
564,294,13,0.0832000598743972,1
565,277,13,0.0777982824193859,1
565,278,13,0.0773053713915436,1
565,279,13,0.0757369417667411,1
565,280,13,0.0756532568266477,1
565,281,13,0.0748633496894907,1
565,282,13,0.077399905977407,1
565,283,13,0.0764819948805319,1
565,291,13,0.0791626915313395,1
565,292,13,0.0966167628983074,1
565,293,13,0.0966545583239219,1
565,294,13,0.0762964808949589,1
566,277,13,0.079755119007843,1
566,278,13,0.0784826672594278,1
566,279,13,0.0752736400319944,1
566,280,13,0.0759942555555249,1
566,281,13,0.0792765437791836,1
566,282,13,0.0833438895899547,1
566,283,13,0.0824161240693236,1
566,284,13,0.0776346288017481,1
566,291,13,0.0777188372401263,1
566,292,13,0.0862700724199473,1
566,293,13,0.0799303010932025,1
566,294,13,0.0647521931701767,1
567,278,13,0.0826661261403058,1
567,279,13,0.0792709463744465,1
567,280,13,0.0810097372982058,1
567,281,13,0.0875712820576543,1
567,282,13,0.0918126536553757,1
567,283,13,0.0912231485649014,1
567,284,13,0.085483093421548,1
567,291,13,0.0704654175882538,1
567,292,13,0.0677294084538415,1
567,293,13,0.0631261959922352,1
567,294,13,0.05706022577388,1
568,278,13,0.0822749233506467,1
568,279,13,0.0805473675054605,1
568,280,13,0.0825476544515533,1
568,281,13,0.0891174198598911,1
568,282,13,0.0923391663698259,1
568,292,13,0.0577422750061899,1
568,293,13,0.0556211922690694,1
569,279,13,0.0809590730191515,1
569,280,13,0.0831036498990741,1
569,281,13,0.0886363076780055,1
569,293,13,0.0536781104542262,1
570,280,13,0.0955077576693074,1
557,278,14,0.0547426470926631,1
558,277,14,0.0700418959704208,1
558,278,14,0.0610059819171036,1
558,279,14,0.0532852623842436,1
558,280,14,0.0483560255457959,1
558,281,14,0.0484730015251634,1
558,282,14,0.0496350584155053,1
558,283,14,0.0474607399297339,1
559,277,14,0.0722479004842417,1
559,278,14,0.0646598733847489,1
559,279,14,0.060486568069504,1
559,280,14,0.0571336190828586,1
559,281,14,0.0550976882315745,1
559,282,14,0.0544299230238918,1
559,283,14,0.0535610194202907,1
559,284,14,0.0501912897248907,1
560,277,14,0.0739092424254976,1
560,278,14,0.0692195376923367,1
560,279,14,0.0676565041267772,1
560,280,14,0.0650993473184462,1
560,281,14,0.0620555844726037,1
560,282,14,0.0615298426237596,1
560,283,14,0.0602569536679857,1
560,284,14,0.0607732207731483,1
561,277,14,0.0767687453805591,1
561,278,14,0.073967868480663,1
561,279,14,0.0736823835808847,1
561,280,14,0.0723154777848038,1
561,281,14,0.0706869609118213,1
561,282,14,0.0738387715025482,1
561,283,14,0.0714829831992718,1
561,284,14,0.0704230142271877,1
562,278,14,0.0804384683567722,1
562,279,14,0.0811684550748729,1
562,280,14,0.0800582647838217,1
562,281,14,0.0761242442065423,1
562,282,14,0.0780344376730996,1
562,283,14,0.0775124178395329,1
562,284,14,0.0769620485603912,1
563,278,14,0.0840595002397737,1
563,279,14,0.0866073778971891,1
563,280,14,0.0854189159834726,1
563,281,14,0.0785240696457516,1
563,282,14,0.0779964754183614,1
563,283,14,0.0791333353582937,1
563,284,14,0.0796443387169667,1
564,278,14,0.0840220384724067,1
564,279,14,0.0863786091467461,1
564,280,14,0.0849120200728802,1
564,281,14,0.0783665139202221,1
564,282,14,0.0777753405385106,1
564,283,14,0.0785021172341618,1
564,284,14,0.0780532203313387,1
564,293,14,0.101717442548652,1
565,277,14,0.0813636969241772,1
565,278,14,0.079269387385049,1
565,279,14,0.0787763267862682,1
565,280,14,0.0775787525507598,1
565,281,14,0.0750747164365115,1
565,282,14,0.0767604211825585,1
565,283,14,0.0778468699634863,1
565,292,14,0.0934398531535537,1
565,293,14,0.106555349070957,1
565,294,14,0.0908354606922971,1
566,278,14,0.0785685497417715,1
566,279,14,0.0761581220241136,1
566,280,14,0.0759916150531874,1
566,281,14,0.0790616333514659,1
566,282,14,0.0827535330956766,1
566,283,14,0.0835402647267546,1
566,284,14,0.0796108175685564,1
566,292,14,0.0814667340426217,1
566,293,14,0.0824923362152202,1
567,278,14,0.081122053567566,1
567,279,14,0.078310442076468,1
567,280,14,0.0795859025018386,1
567,281,14,0.0862403480722837,1
567,282,14,0.0894232003854788,1
567,283,14,0.0901807254144496,1
568,279,14,0.0830447247020317,1
568,280,14,0.085559040941938,1
568,281,14,0.0905057948383759,1
568,282,14,0.0901474056115334,1
569,280,14,0.094445648682257,1
558,278,15,0.0598101335001164,1
558,279,15,0.0549339138066402,1
558,280,15,0.0542103183697964,1
558,281,15,0.0525565470191202,1
558,282,15,0.0492493955032993,1
559,278,15,0.0650069239839071,1
559,279,15,0.0615899011082976,1
559,280,15,0.0602277528186068,1
559,281,15,0.05761669294513,1
559,282,15,0.0547812248893405,1
559,283,15,0.052059079830382,1
560,278,15,0.0719099679596039,1
560,279,15,0.0691492048348691,1
560,280,15,0.0660782718527743,1
560,281,15,0.0628646539480745,1
560,282,15,0.0629071781164371,1
560,283,15,0.0608364662692222,1
561,278,15,0.0791619609348322,1
561,279,15,0.0763262340062645,1
561,280,15,0.0727511951868532,1
561,281,15,0.0701026275241822,1
561,282,15,0.0749264743782681,1
561,283,15,0.0728392694587189,1
561,284,15,0.0687633923517246,1
562,278,15,0.0872488416306086,1
562,279,15,0.0856029285069323,1
562,280,15,0.0821870274133616,1
562,281,15,0.0765376640332977,1
562,282,15,0.0791039389161492,1
562,283,15,0.077828697094458,1
562,284,15,0.0742390003230732,1
563,278,15,0.0901347035872173,1
563,279,15,0.0909518901624663,1
563,280,15,0.0882894239079711,1
563,281,15,0.0788765105514243,1
563,282,15,0.077255984218195,1
563,283,15,0.0765314971084486,1
564,278,15,0.0875363169744146,1
564,279,15,0.0887719972828713,1
564,280,15,0.0858470743003992,1
564,281,15,0.0770465158715476,1
564,282,15,0.075286520390891,1
564,283,15,0.0747289659539726,1
565,277,15,0.0837008176237826,1
565,278,15,0.0799119613950504,1
565,279,15,0.0781510857469481,1
565,280,15,0.0761408983552719,1
565,281,15,0.0731795433438171,1
565,282,15,0.0745493887841125,1
565,283,15,0.0751073113956487,1
565,293,15,0.109889941101266,1
566,278,15,0.0776317466848177,1
566,279,15,0.0749859288263238,1
566,280,15,0.0748161485529357,1
566,281,15,0.078135536122072,1
566,282,15,0.0804539834652779,1
566,283,15,0.0800129965640104,1
567,279,15,0.079603735959891,1
567,280,15,0.0814158626653449,1
567,281,15,0.0868576963682335,1
567,282,15,0.0869796196940285,1
568,280,15,0.0881541197359084,1
558,279,16,0.0596199080299805,1
558,280,16,0.0613551207566725,1
559,279,16,0.0641037398717464,1
559,280,16,0.0635219894591607,1
559,281,16,0.0619871787791514,1
559,282,16,0.0598502012534505,1
560,279,16,0.0709107247885527,1
560,280,16,0.0674328840682559,1
560,281,16,0.0653632652394378,1
560,282,16,0.066817100514432,1
561,278,16,0.0802025202012811,1
561,279,16,0.0784864755656313,1
561,280,16,0.0736820844390077,1
561,281,16,0.0709615501440023,1
561,282,16,0.0752198692796019,1
561,283,16,0.0745688387588465,1
562,278,16,0.0890762533354319,1
562,279,16,0.0872752811703535,1
562,280,16,0.0822522576007349,1
562,281,16,0.0770023924446887,1
562,282,16,0.0785677040906961,1
562,283,16,0.0773636062611776,1
563,279,16,0.0907850782969347,1
563,280,16,0.0862237054290109,1
563,281,16,0.0777686846317471,1
563,282,16,0.0751137947205601,1
564,279,16,0.0893414138457588,1
564,280,16,0.0837538635323961,1
564,281,16,0.0752205078324548,1
564,282,16,0.0722487058662182,1
565,278,16,0.083201394507387,1
565,279,16,0.0801238746512696,1
565,280,16,0.0757684091911112,1
565,281,16,0.0722610972432005,1
565,282,16,0.0723050308300221,1
566,279,16,0.0782668996751779,1
566,280,16,0.0772275197180519,1
566,281,16,0.0783080949632792,1
566,282,16,0.079009507879397,1
567,280,16,0.0833018659089633,1
559,280,17,0.0650604473689782,1
560,280,17,0.071537962024629,1
561,279,17,0.0844734263066287,1
561,280,17,0.0796360605407933,1
561,281,17,0.0762069339246218,1
561,282,17,0.077070228618029,1
562,279,17,0.0932112512322344,1
562,280,17,0.0873020198519754,1
562,281,17,0.0815765191114842,1
562,282,17,0.0792341404181175,1
563,280,17,0.0873659211590873,1
564,280,17,0.0832446262613432,1
565,279,17,0.0861264613080692,1
565,280,17,0.0793873931028008,1
565,281,17,0.0738063778889052,1
566,280,17,0.0816653700016844,1
561,280,18,0.08623271995442,1
562,280,18,0.0929380771712408,1
565,280,18,0.0930811130102785,1
