x,y,z,signal,mito.p
397,820,32,0.0623067255838099,1
398,818,32,0.0637393332909933,1
398,819,32,0.0665961152055197,1
398,820,32,0.068795078379774,1
398,820,33,0.057565591458717,1
399,819,33,0.0583423248478288,1
400,819,33,0.0678591727484511,1
399,820,34,0.0530156607675889,1
400,820,34,0.0608279579839126,1
406,817,34,0.0731317209125944,1
407,817,34,0.0781865110484601,1
400,821,35,0.0541280025790632,1
405,821,35,0.0786543689441028,1
406,820,35,0.073888233461366,1
407,817,35,0.0731010473647442,1
407,818,35,0.0803680261974649,1
407,819,35,0.0770709879781783,1
407,820,35,0.0756408251805666,1
407,821,35,0.0807225208271779,1
408,818,35,0.0826707858503131,1
399,825,36,0.0497086185536076,1
400,824,36,0.0523631978174609,1
401,822,36,0.0500327272718905,1
401,823,36,0.053971718206511,1
405,821,36,0.067261625343668,1
406,820,36,0.0622948577051124,1
406,821,36,0.0665542353427384,1
407,817,36,0.0669658718236885,1
407,818,36,0.0776660156879205,1
407,819,36,0.0730617734879299,1
407,820,36,0.0690013424567004,1
407,821,36,0.0746304504800537,1
408,817,36,0.0789672425838126,1
408,818,36,0.0809164337962209,1
411,812,36,0.083331164554725,1
397,831,37,0.0531541404457306,1
398,829,37,0.0497511657328838,1
398,830,37,0.0551637410591095,1
399,826,37,0.0482744288461131,1
399,829,37,0.0598620461212344,1
400,825,37,0.0477167190855279,1
401,824,37,0.049340645281244,1
401,825,37,0.0546980864584455,1
402,822,37,0.0477515144632796,1
402,823,37,0.0506289745600543,1
402,824,37,0.0579912588442447,1
403,822,37,0.0590721102204353,1
403,823,37,0.062728883805011,1
404,821,37,0.0650707044837225,1
404,822,37,0.0704431430238734,1
405,820,37,0.0551643105792215,1
405,821,37,0.0607627968292802,1
405,822,37,0.0735109292635311,1
406,819,37,0.0606879480800154,1
406,820,37,0.0585029295194125,1
406,821,37,0.0616671027234797,1
406,822,37,0.0740732066904692,1
407,818,37,0.0694865103121108,1
407,819,37,0.0670606940459721,1
407,820,37,0.0663095602982583,1
407,821,37,0.0724487915128387,1
408,818,37,0.0806241089023702,1
412,812,37,0.0893204336452693,1
397,832,38,0.0491950839944369,1
398,830,38,0.0471125934358147,1
398,831,38,0.0516487722296931,1
399,829,38,0.0488203915352974,1
399,830,38,0.0549403223460823,1
400,829,38,0.0554730537599373,1
401,825,38,0.0470512175764722,1
401,826,38,0.0525566390627747,1
401,829,38,0.0615928637634257,1
402,824,38,0.0474434759917934,1
402,825,38,0.0540351995644494,1
402,826,38,0.0607331760307279,1
403,821,38,0.0488874223266611,1
403,822,38,0.0492470886592093,1
403,823,38,0.0507950788399922,1
403,824,38,0.0549972801100106,1
403,825,38,0.0615943537200824,1
403,826,38,0.0693263370951575,1
403,827,38,0.0747458099427396,1
404,820,38,0.0502965761601412,1
404,821,38,0.0549202165603102,1
404,822,38,0.0604111728110408,1
404,823,38,0.0662576419244119,1
404,824,38,0.0673017333661009,1
404,825,38,0.0692837208831405,1
404,826,38,0.07601406219942,1
405,819,38,0.0468678982567852,1
405,820,38,0.0499823851456269,1
405,821,38,0.0554104123003458,1
405,822,38,0.0671116632196318,1
405,823,38,0.0795115427344881,1
406,818,38,0.0517094174925284,1
406,819,38,0.0536634007276971,1
406,820,38,0.055161911691477,1
406,821,38,0.0584126577052965,1
406,822,38,0.0684068439979714,1
407,818,38,0.0587665252876134,1
407,819,38,0.0616846945669392,1
407,820,38,0.0665554031466044,1
407,821,38,0.0700375066386486,1
408,817,38,0.0721265179149167,1
409,816,38,0.0834829675518505,1
413,812,38,0.080118127675594,1
396,833,39,0.0472049247266994,1
396,834,39,0.0557684448580273,1
396,835,39,0.0630273238491552,1
397,832,39,0.0474550533577065,1
397,833,39,0.0560662693602322,1
397,835,39,0.0690338568776399,1
397,836,39,0.0701634741325116,1
397,837,39,0.0740045421242387,1
397,838,39,0.0805720984848694,1
398,831,39,0.0476220406814544,1
398,832,39,0.0545227490494192,1
399,830,39,0.0477302984009256,1
399,831,39,0.0533062886065603,1
399,832,39,0.0605141466494729,1
400,829,39,0.0474059595735065,1
400,830,39,0.0530011811501959,1
400,831,39,0.05985517736352,1
401,826,39,0.0482119570920096,1
401,827,39,0.0498313127450087,1
401,828,39,0.04959950080124,1
401,829,39,0.0518627794790513,1
401,830,39,0.058056604086186,1
401,831,39,0.0660077146388989,1
402,825,39,0.0490080800522072,1
402,826,39,0.0560657918837746,1
402,827,39,0.058572008282088,1
402,828,39,0.0596178255422982,1
402,829,39,0.0627897879406245,1
402,830,39,0.0657344945560781,1
402,831,39,0.0711534151417334,1
402,832,39,0.0757150008606082,1
403,824,39,0.04895501113268,1
403,825,39,0.056017457459724,1
403,826,39,0.0638818743953882,1
403,827,39,0.068686610685716,1
403,828,39,0.0738830042312468,1
403,829,39,0.0809132352792282,1
403,830,39,0.0781973894578721,1
403,831,39,0.0773087827594872,1
404,821,39,0.0491317867238074,1
404,822,39,0.05475026370507,1
404,823,39,0.0579312233706202,1
404,824,39,0.0603459311182107,1
404,825,39,0.0650618913038076,1
404,826,39,0.0704348878586136,1
404,827,39,0.0751778455986105,1
404,828,39,0.0819996783074276,1
405,820,39,0.0485566807125283,1
405,821,39,0.0558850411573201,1
405,822,39,0.0656707370671762,1
405,823,39,0.0716790476887378,1
405,824,39,0.0742764735958971,1
405,828,39,0.0836857512280925,1
405,829,39,0.0864649863637326,1
406,819,39,0.049688961480651,1
406,820,39,0.0559938827787243,1
406,821,39,0.0622283331538482,1
406,822,39,0.0696640164997455,1
407,818,39,0.0541774127633254,1
408,817,39,0.0707156497683721,1
409,816,39,0.0771184594929683,1
413,812,39,0.0825109347861504,1
395,835,40,0.0495223164442432,1
396,833,40,0.0478594500299602,1
396,834,40,0.0520118959520121,1
396,835,40,0.0559192066113116,1
396,836,40,0.0588704713371458,1
396,837,40,0.0632608558587167,1
396,838,40,0.0693562225192164,1
397,832,40,0.0503552539898623,1
397,833,40,0.0559079600272817,1
397,834,40,0.0581811391506764,1
397,835,40,0.0605322044639332,1
397,836,40,0.0630557365747427,1
398,832,40,0.0542612185107153,1
398,833,40,0.0595127346998134,1
398,835,40,0.0655222591470683,1
399,831,40,0.0468154017337343,1
399,832,40,0.0541326795472557,1
399,833,40,0.0602463456368086,1
400,831,40,0.0495356512686837,1
400,832,40,0.0555533676011859,1
400,833,40,0.0617813806732257,1
401,830,40,0.0482880570597023,1
401,831,40,0.0543992782396835,1
401,832,40,0.060382656536342,1
401,833,40,0.0653847574327552,1
401,834,40,0.0697360521648207,1
401,835,40,0.0773527508626791,1
402,826,40,0.0512978673025042,1
402,827,40,0.052881323053898,1
402,828,40,0.0517270380996299,1
402,829,40,0.0518270665411191,1
402,830,40,0.0550433939808973,1
402,831,40,0.0615359865376951,1
402,832,40,0.0683188790279454,1
402,835,40,0.0791513701618404,1
403,825,40,0.0516838581202293,1
403,826,40,0.059025047149362,1
403,827,40,0.0620829674598068,1
403,828,40,0.0637076587684007,1
403,829,40,0.0647731331015674,1
403,830,40,0.0647389158730203,1
403,831,40,0.0689211839391186,1
404,822,40,0.0513894507386964,1
404,823,40,0.0530520755383863,1
404,824,40,0.0561221973857761,1
404,825,40,0.0621876901276738,1
404,826,40,0.0657281608021052,1
404,827,40,0.0675677107638611,1
404,828,40,0.0718909494395002,1
404,829,40,0.0753912775751283,1
404,830,40,0.0749013522133277,1
405,820,40,0.0481911868661069,1
405,821,40,0.0572973992605213,1
405,822,40,0.0645869978213267,1
405,823,40,0.0664105149290205,1
405,824,40,0.0715317778415947,1
405,828,40,0.0750338145375589,1
405,829,40,0.0756508004116192,1
406,819,40,0.0485787366732294,1
407,817,40,0.0492313204306538,1
408,816,40,0.0589146407858319,1
413,811,40,0.0777999909797219,1
413,812,40,0.0838191915161523,1
395,836,41,0.0519068166149842,1
395,837,41,0.0584997885297039,1
395,838,41,0.0645269796058875,1
396,832,41,0.0468635491941118,1
396,833,41,0.0507931459232485,1
396,834,41,0.0494953879225839,1
396,835,41,0.0508140225746267,1
396,836,41,0.0543670226915221,1
396,837,41,0.0582929836963075,1
396,839,41,0.0709898535677501,1
397,832,41,0.0557186147245916,1
397,833,41,0.0585141128234299,1
397,834,41,0.0539519863480852,1
397,835,41,0.0545414914385595,1
397,836,41,0.0592524870195436,1
397,840,41,0.0895061547290649,1
398,832,41,0.0546791657347247,1
398,833,41,0.057052522870547,1
398,834,41,0.0554057353321533,1
398,835,41,0.0591839950351653,1
398,841,41,0.0986937049503839,1
399,832,41,0.0496514479387284,1
399,833,41,0.0537783114775676,1
399,834,41,0.057170672406509,1
399,835,41,0.065018826378975,1
399,841,41,0.0843325074716437,1
400,832,41,0.0487074769821831,1
400,833,41,0.0542854662609382,1
400,834,41,0.0593996303066618,1
400,835,41,0.0687654000539376,1
401,831,41,0.0472331476122495,1
401,832,41,0.0534212223673444,1
401,833,41,0.0593651196889661,1
401,834,41,0.062951928590692,1
401,835,41,0.0711067087398211,1
402,827,41,0.0469326480913368,1
402,830,41,0.0483880049629938,1
402,831,41,0.0549356108615194,1
402,832,41,0.0628381396228603,1
402,833,41,0.0683633936403357,1
402,834,41,0.0696727433887344,1
402,835,41,0.0731947995795446,1
402,836,41,0.083229956803913,1
403,825,41,0.0468823174705299,1
403,826,41,0.0531849808227046,1
403,827,41,0.054303972788214,1
403,828,41,0.0536243109381918,1
403,829,41,0.0530265506824577,1
403,830,41,0.0556728345119523,1
403,831,41,0.0631764000530171,1
403,832,41,0.0725607281021243,1
403,835,41,0.0803641028366934,1
403,836,41,0.0803247829380519,1
403,837,41,0.0813515126454175,1
403,838,41,0.0827781490205174,1
403,839,41,0.0839568428014038,1
404,822,41,0.0482039694286206,1
404,823,41,0.0494014516204746,1
404,824,41,0.0523601201077647,1
404,825,41,0.0578036336073473,1
404,826,41,0.060262625858192,1
404,827,41,0.059432138974873,1
404,828,41,0.0603869480717315,1
404,829,41,0.0616041966383817,1
404,830,41,0.0646167681908175,1
404,831,41,0.0724843663852892,1
404,835,41,0.0839949603798089,1
404,836,41,0.077558750314099,1
404,837,41,0.074356436520713,1
404,838,41,0.0725824388991211,1
404,839,41,0.0723756053020827,1
405,820,41,0.049031614464108,1
405,821,41,0.0577080922940132,1
405,822,41,0.0618784464595869,1
405,823,41,0.0619321021574112,1
405,824,41,0.0676539211517238,1
405,827,41,0.0660577000960015,1
405,828,41,0.0656358985439614,1
405,829,41,0.0669869555732893,1
405,835,41,0.0757896770280208,1
405,836,41,0.068781979417198,1
405,837,41,0.0666123263941622,1
405,838,41,0.0650262991731718,1
406,834,41,0.0769841735538331,1
406,835,41,0.0671452188844125,1
407,817,41,0.0519034800325098,1
408,816,41,0.058408820635451,1
413,811,41,0.0802523503347168,1
395,837,42,0.0495013362437537,1
395,838,42,0.0545524791498112,1
396,832,42,0.0491690874147791,1
396,833,42,0.0513725952444725,1
396,836,42,0.0473400649460026,1
396,837,42,0.0503200990665853,1
396,839,42,0.0611569162522401,1
397,832,42,0.0582908954558968,1
397,833,42,0.0580698871360709,1
397,834,42,0.0491578465834776,1
397,835,42,0.0473437524449096,1
397,836,42,0.0517859345330303,1
397,840,42,0.0792161861527685,1
398,832,42,0.0522167736213932,1
398,833,42,0.0522179759416296,1
398,834,42,0.0490718490465658,1
398,835,42,0.0510513743958485,1
398,841,42,0.0858001723057212,1
399,834,42,0.0494738727183529,1
399,835,42,0.055832001001435,1
399,841,42,0.0752595631055897,1
399,842,42,0.0919186534289483,1
400,833,42,0.0468000016797967,1
400,834,42,0.0513008529685459,1
400,835,42,0.0591391525172559,1
400,836,42,0.073833513508787,1
400,840,42,0.0750498128752505,1
400,841,42,0.0756324492080104,1
401,832,42,0.0470929219810372,1
401,833,42,0.052217440937888,1
401,834,42,0.0554397339570211,1
401,835,42,0.0627588900363664,1
401,836,42,0.0800182890741421,1
401,839,42,0.0831653939330346,1
402,831,42,0.0492433551384751,1
402,832,42,0.0568571199448474,1
402,833,42,0.0615609936480674,1
402,834,42,0.0620518394464126,1
402,835,42,0.0647728339596904,1
402,836,42,0.0740498736240624,1
402,837,42,0.0808793459562001,1
402,838,42,0.0818102984883671,1
403,830,42,0.0487157091365293,1
403,831,42,0.0583288749688202,1
403,832,42,0.0675352711283908,1
403,833,42,0.071261606704828,1
403,834,42,0.0700253913926297,1
403,835,42,0.0690657327457266,1
403,836,42,0.0711501130756295,1
403,837,42,0.0733104179150087,1
403,838,42,0.0759115773429022,1
403,839,42,0.0791050146763607,1
404,824,42,0.047671471000266,1
404,825,42,0.0520956211612043,1
404,826,42,0.0533301106548814,1
404,827,42,0.0509817721348881,1
404,828,42,0.0495809885212359,1
404,829,42,0.0509787059306488,1
404,830,42,0.0572089855776798,1
404,831,42,0.0683373567915791,1
404,832,42,0.0765690681776553,1
404,833,42,0.0782385099605041,1
404,834,42,0.074429720527852,1
404,835,42,0.0706010381603787,1
404,836,42,0.069119359679909,1
404,837,42,0.0683639343968057,1
404,838,42,0.0680605412535057,1
404,839,42,0.0686624147100487,1
404,840,42,0.0655302669450067,1
405,820,42,0.0484288550873908,1
405,821,42,0.0552299779739535,1
405,822,42,0.0560951595622772,1
405,823,42,0.0554814584961355,1
405,824,42,0.0608793125903754,1
405,827,42,0.057229649378107,1
405,828,42,0.055616716646371,1
405,829,42,0.0591959434520604,1
405,830,42,0.0659831389831569,1
405,831,42,0.0745209818112534,1
405,832,42,0.0785387851250091,1
405,833,42,0.0779979136004624,1
405,834,42,0.072340853069794,1
405,835,42,0.066099568453326,1
405,836,42,0.0622372038610472,1
405,837,42,0.061125932057056,1
405,838,42,0.0607830867023612,1
405,839,42,0.0614381786493698,1
406,828,42,0.0654483768561753,1
406,829,42,0.068268312545274,1
406,833,42,0.0733662538968982,1
406,834,42,0.0689555162222339,1
406,835,42,0.0614211678314791,1
406,836,42,0.0558783679923714,1
406,837,42,0.0547342366037364,1
406,838,42,0.0538909844160889,1
407,817,42,0.0538329393864922,1
407,833,42,0.0698429551167528,1
407,834,42,0.0648444151592217,1
407,835,42,0.0577215766893922,1
408,816,42,0.0565667509786542,1
413,811,42,0.0819292246426635,1
415,810,42,0.10508808117514,1
396,839,43,0.05063933522391,1
397,832,43,0.052248223787578,1
397,833,43,0.0501562441034534,1
397,837,43,0.0477402765083424,1
397,839,43,0.0525753929573718,1
397,840,43,0.065416506740817,1
398,840,43,0.058773652918106,1
398,841,43,0.0731087560208055,1
399,835,43,0.0468437109102105,1
399,836,43,0.0536794105708455,1
399,840,43,0.0611038991072686,1
399,841,43,0.0682888095165775,1
399,842,43,0.0803769659374048,1
400,835,43,0.0505224742991106,1
400,836,43,0.060578905113117,1
400,837,43,0.0686594232912786,1
400,839,43,0.0659353107992059,1
400,840,43,0.0691752244254405,1
400,841,43,0.0711397926808727,1
400,842,43,0.0782452464054652,1
401,834,43,0.048857519644417,1
401,835,43,0.0555507673679473,1
401,836,43,0.0673868277246533,1
401,837,43,0.0745548998979236,1
401,838,43,0.0715301613249132,1
401,839,43,0.0764362952060903,1
401,840,43,0.079333674124964,1
401,841,43,0.0738451685365335,1
402,832,43,0.0504430406253078,1
402,833,43,0.053353599044955,1
402,834,43,0.0540032201472514,1
402,835,43,0.0572215667946994,1
402,836,43,0.0640713462581033,1
402,837,43,0.0696520623301219,1
402,838,43,0.0730018358106883,1
402,839,43,0.0816005194943858,1
403,831,43,0.0557815955951589,1
403,832,43,0.0617482449576185,1
403,833,43,0.0607384973045016,1
403,834,43,0.0576115557586652,1
403,835,43,0.0577414811296702,1
403,836,43,0.0611556218883492,1
403,837,43,0.0655511378436565,1
403,838,43,0.0699966795251652,1
403,839,43,0.0756416650789136,1
403,840,43,0.0745517646609434,1
403,841,43,0.0684878539193569,1
404,829,43,0.0472073034798944,1
404,830,43,0.0572185293541021,1
404,831,43,0.0678993900727237,1
404,832,43,0.0693933563810644,1
404,833,43,0.0640868210975101,1
404,834,43,0.0588529945482543,1
404,835,43,0.0574040375869467,1
404,836,43,0.0588755164799561,1
404,837,43,0.0613266907728998,1
404,838,43,0.0629047964868778,1
404,839,43,0.064778851313601,1
404,840,43,0.0628753310119924,1
404,841,43,0.0591711549453675,1
405,820,43,0.0486932389793831,1
405,821,43,0.0527955096042951,1
405,822,43,0.0505913114471932,1
405,823,43,0.0490986567609286,1
405,824,43,0.0526973220358952,1
405,825,43,0.0574080529913727,1
405,826,43,0.0559485915479994,1
405,827,43,0.0509764508611144,1
405,828,43,0.0494056856285799,1
405,829,43,0.0552821207042076,1
405,830,43,0.0650133900506332,1
405,831,43,0.0706070727724745,1
405,832,43,0.0676585520980891,1
405,833,43,0.0630639112018048,1
405,834,43,0.0588106257035587,1
405,835,43,0.0558548565913842,1
405,836,43,0.0541343535912212,1
405,837,43,0.0545731889720657,1
405,838,43,0.0553275442476858,1
405,839,43,0.056714728411391,1
405,840,43,0.0550075487302118,1
406,819,43,0.0523109457853671,1
406,820,43,0.0638702999058393,1
406,821,43,0.0668671722624606,1
406,822,43,0.0624284705750243,1
406,823,43,0.0583236112223305,1
406,824,43,0.0634917128495703,1
406,827,43,0.0624673014917515,1
406,828,43,0.0586725774800472,1
406,829,43,0.0625517227810806,1
406,830,43,0.06769293615576,1
406,831,43,0.0683036515558599,1
406,832,43,0.064570343672597,1
406,833,43,0.0627071615025574,1
406,834,43,0.0593685368096381,1
406,835,43,0.0543798685340483,1
406,836,43,0.0500272276635363,1
406,837,43,0.0489263510397711,1
406,838,43,0.0486823548172427,1
406,839,43,0.0489797133484469,1
407,817,43,0.0584798093039567,1
407,832,43,0.0689854764317621,1
407,833,43,0.0644302014559465,1
407,834,43,0.0576071319105225,1
407,835,43,0.0512983505316902,1
407,836,43,0.0471056240053533,1
408,816,43,0.0538096178255423,1
411,813,43,0.081661705513691,1
412,812,43,0.0796843892121155,1
412,813,43,0.0872719618460644,1
413,811,43,0.0847128548628043,1
414,809,43,0.0889804646547765,1
414,810,43,0.102825648148404,1
414,811,43,0.102049973261318,1
415,809,43,0.100704041912998,1
415,810,43,0.119361923473065,1
415,811,43,0.110286867855687,1
416,810,43,0.119322482767127,1
397,840,44,0.0541306833504995,1
398,840,44,0.0510457942492966,1
398,841,44,0.0610357235229525,1
399,837,44,0.0516543178598746,1
399,839,44,0.0511168807141851,1
399,840,44,0.0541331455182564,1
399,841,44,0.0601601122380323,1
399,842,44,0.0686825550121912,1
400,836,44,0.0506323686698127,1
400,837,44,0.0560201957584443,1
400,838,44,0.05582264706505,1
400,839,44,0.0580632312293074,1
400,840,44,0.062460915963223,1
400,841,44,0.0640750682733807,1
400,842,44,0.0689221906665893,1
401,835,44,0.0489694044591469,1
401,836,44,0.0556222105019969,1
401,837,44,0.0597469973058822,1
401,838,44,0.0616637949046474,1
401,839,44,0.0695318360592062,1
401,840,44,0.0734753831547226,1
401,841,44,0.0669675573731109,1
401,842,44,0.0657631373908017,1
402,834,44,0.0473182649817155,1
402,835,44,0.0503484485121603,1
402,836,44,0.0546440798441885,1
402,837,44,0.0593940271491963,1
402,838,44,0.0659240009351635,1
402,839,44,0.0764363067115472,1
402,840,44,0.0769777189925638,1
402,841,44,0.0660228328091447,1
402,842,44,0.0611518653567014,1
403,831,44,0.0518344703025751,1
403,832,44,0.0537482304607429,1
403,833,44,0.0505777062445176,1
403,834,44,0.0478802691540544,1
403,835,44,0.0486398364016086,1
403,836,44,0.052123096192062,1
403,837,44,0.0578168821408618,1
403,838,44,0.0646490697608062,1
403,839,44,0.0717852660659898,1
403,840,44,0.0708723943591967,1
403,841,44,0.0634117326665691,1
403,842,44,0.0578543439082288,1
404,830,44,0.0570074905126003,1
404,831,44,0.0643741296121925,1
404,832,44,0.0596153921381833,1
404,833,44,0.0515120068646158,1
404,834,44,0.0473601247099474,1
404,835,44,0.0475733898573415,1
404,836,44,0.0500943102294556,1
404,837,44,0.0542249360526711,1
404,838,44,0.0578852820815857,1
404,839,44,0.0611217843398767,1
404,840,44,0.0609129602988105,1
404,841,44,0.0578442191062377,1
404,842,44,0.053237583771231,1
405,820,44,0.0529866209946053,1
405,821,44,0.0512772840402746,1
405,825,44,0.0472765519480579,1
405,826,44,0.0479372614343531,1
405,829,44,0.0497656280920915,1
405,830,44,0.0588878100605555,1
405,831,44,0.0605276137866667,1
405,832,44,0.0540321966402225,1
405,833,44,0.0496538468264729,1
405,834,44,0.0478811291869508,1
405,835,44,0.0475186008720216,1
405,836,44,0.047380636063072,1
405,837,44,0.0485072360118957,1
405,838,44,0.049800662208072,1
405,839,44,0.0516330557756933,1
405,840,44,0.0514958474505288,1
405,841,44,0.0498635682931701,1
406,818,44,0.0525467443699198,1
406,819,44,0.0643474599633114,1
406,820,44,0.0753211115467844,1
406,821,44,0.0674134628571639,1
406,822,44,0.0579322991308318,1
406,823,44,0.0529952213235693,1
406,824,44,0.053906649095533,1
406,825,44,0.0564789873541223,1
406,826,44,0.0577124816257855,1
406,827,44,0.054753324156581,1
406,828,44,0.0517830869324703,1
406,829,44,0.0529838424267862,1
406,830,44,0.0541828721025808,1
406,831,44,0.0521692100629487,1
406,832,44,0.050561351237665,1
406,833,44,0.0511137109608345,1
406,834,44,0.0497013240939913,1
406,835,44,0.0472932722531642,1
407,817,44,0.0623961114777517,1
407,818,44,0.080119537094053,1
407,820,44,0.0830881635542105,1
407,821,44,0.0757271103538986,1
407,822,44,0.0691525184064298,1
407,823,44,0.0636366010671541,1
407,830,44,0.0557916226007671,1
407,831,44,0.0545000142667664,1
407,832,44,0.0561952570365073,1
407,833,44,0.0550785604096311,1
407,834,44,0.0495640697469996,1
408,816,44,0.0502269854046377,1
409,814,44,0.0469697618186353,1
409,815,44,0.056998700343599,1
410,814,44,0.0612432014255721,1
411,813,44,0.0650243950200701,1
412,812,44,0.0719631922027979,1
413,810,44,0.0807993600204705,1
413,811,44,0.0851030394195359,1
414,809,44,0.0868880995378488,1
414,810,44,0.102598242794593,1
414,811,44,0.104164710739009,1
414,812,44,0.0882620121571259,1
415,809,44,0.101359312194588,1
415,810,44,0.123262583978329,1
415,811,44,0.113663351254233,1
415,812,44,0.0829418198963404,1
416,810,44,0.11111286761085,1
416,811,44,0.0932194833865806,1
397,840,45,0.0501816193884436,1
397,841,45,0.0575623354144404,1
398,840,45,0.0506299467711546,1
398,841,45,0.0552950643431167,1
398,842,45,0.0613951539936361,1
399,837,45,0.0476633280132101,1
399,838,45,0.0493427277689262,1
399,839,45,0.0500669445004377,1
399,840,45,0.0530013997538753,1
399,841,45,0.0556703033114546,1
399,842,45,0.0609688365497988,1
399,843,45,0.0706186760256654,1
400,837,45,0.0495232311280594,1
400,838,45,0.0512663078344797,1
400,839,45,0.0540926578157489,1
400,840,45,0.0576786268191278,1
400,841,45,0.0579196833974417,1
400,842,45,0.0605521376678531,1
400,843,45,0.0669894465046882,1
401,836,45,0.048753579347613,1
401,837,45,0.0516962897663104,1
401,838,45,0.0545980407587711,1
401,839,45,0.0611988363841203,1
401,840,45,0.064823929693375,1
401,841,45,0.0593531079920585,1
401,842,45,0.0576373624982857,1
402,836,45,0.0495596516515853,1
402,837,45,0.0537286769368976,1
402,838,45,0.0594876700621571,1
402,839,45,0.0681135066239216,1
402,840,45,0.0691241114335707,1
402,841,45,0.0592413324791682,1
402,842,45,0.0539530678610251,1
403,831,45,0.049035273199373,1
403,832,45,0.0474676547092755,1
403,836,45,0.048043079996981,1
403,837,45,0.0535639533117767,1
403,838,45,0.0599824162103602,1
403,839,45,0.0665348774116588,1
403,840,45,0.0667080863111757,1
403,841,45,0.0591988255689909,1
403,842,45,0.0524878249256057,1
404,830,45,0.0574868826286931,1
404,831,45,0.060249469368332,1
404,832,45,0.0527400245388383,1
404,837,45,0.049290113314943,1
404,838,45,0.0531095050260438,1
404,839,45,0.0567825358210892,1
404,840,45,0.0586438138380271,1
404,841,45,0.0565321885864028,1
404,842,45,0.0509847405427446,1
405,819,45,0.047629395544719,1
405,820,45,0.0574970764634251,1
405,821,45,0.0496928790886942,1
405,829,45,0.0477048569595588,1
405,830,45,0.0546190209592606,1
405,831,45,0.0536746588171838,1
405,832,45,0.0476142428581027,1
405,839,45,0.0468126576822856,1
405,840,45,0.0485217271347455,1
405,841,45,0.048970359412062,1
406,818,45,0.0603045805064426,1
406,819,45,0.0793011366931108,1
406,820,45,0.0850829336337638,1
406,821,45,0.0650070160275616,1
406,822,45,0.0525804093365401,1
406,823,45,0.0488888144869349,1
406,824,45,0.0486010802703506,1
406,825,45,0.0489072864978402,1
406,826,45,0.0504963396539711,1
406,829,45,0.0491534399935201,1
406,830,45,0.048021351941799,1
407,817,45,0.0628969094962359,1
407,818,45,0.0897961440151835,1
407,819,45,0.0967360514744933,1
407,820,45,0.0866567017905252,1
407,821,45,0.0695978256067288,1
407,822,45,0.0604333093099395,1
407,823,45,0.0564006984732719,1
407,831,45,0.0493374295060661,1
408,816,45,0.0479698161243915,1
409,815,45,0.0556879929512969,1
410,813,45,0.0496675900946301,1
410,814,45,0.061071028017168,1
411,812,45,0.0564022862263114,1
411,813,45,0.0574258289221412,1
412,811,45,0.0692114493562007,1
412,812,45,0.0662375591495535,1
413,810,45,0.0813708763292254,1
413,811,45,0.0860707058643774,1
414,809,45,0.087582511383499,1
414,810,45,0.1031031367557,1
414,811,45,0.10381650959417,1
414,812,45,0.0911088188405997,1
415,809,45,0.101663171308888,1
415,810,45,0.120449396239649,1
415,811,45,0.110529023205126,1
415,812,45,0.0845095937101048,1
416,810,45,0.0998688953196722,1
416,811,45,0.085339654891522,1
397,841,46,0.04842824529818,1
398,841,46,0.0486069135369523,1
398,842,46,0.0544981964045908,1
399,840,46,0.0486369772955918,1
399,841,46,0.0497796992657678,1
399,842,46,0.0541017758902692,1
399,843,46,0.0632702845805709,1
400,839,46,0.0484283948691185,1
400,840,46,0.0516097227092866,1
400,841,46,0.0515771967828902,1
400,842,46,0.0533911298450629,1
400,843,46,0.0578587274872727,1
401,838,46,0.0480399246254514,1
401,839,46,0.0534883739660046,1
401,840,46,0.0567897900116067,1
401,841,46,0.0531991210291217,1
401,842,46,0.051251218427876,1
402,837,46,0.0491122331999621,1
402,838,46,0.0540639344428275,1
402,839,46,0.0615282491179917,1
402,840,46,0.0637633106629812,1
402,841,46,0.0553136053867628,1
402,842,46,0.0489740469109689,1
403,837,46,0.0496327745823289,1
403,838,46,0.0554439161905709,1
403,839,46,0.0627841445140601,1
403,840,46,0.0649497993908551,1
403,841,46,0.056873388660774,1
403,842,46,0.0487908340167575,1
404,830,46,0.0542976908087968,1
404,831,46,0.0530199120338794,1
404,838,46,0.0492302964449979,1
404,839,46,0.0542238775506447,1
404,840,46,0.0579833258317755,1
404,841,46,0.0556391120180479,1
405,819,46,0.0570941668714638,1
405,820,46,0.0599375391760804,1
405,830,46,0.048765838411842,1
405,831,46,0.0468129539477984,1
406,818,46,0.0687521802840651,1
406,819,46,0.0921395754578481,1
406,820,46,0.0849038799621885,1
406,821,46,0.0563979256581812,1
407,818,46,0.0904677520454401,1
407,819,46,0.0972387248824372,1
407,820,46,0.0778555738415616,1
407,821,46,0.0569758390009214,1
407,822,46,0.0489040304535635,1
408,820,46,0.0672466279807187,1
411,812,46,0.0473074124595813,1
411,813,46,0.0491950954998937,1
412,811,46,0.0628362929970426,1
412,812,46,0.0577454965340962,1
413,810,46,0.0805352925285404,1
413,811,46,0.0817842443814252,1
413,812,46,0.0750301385441087,1
414,808,46,0.0663185115436549,1
414,809,46,0.0849585193765699,1
414,810,46,0.100843660631364,1
414,811,46,0.0980748149232218,1
414,812,46,0.0858059480450388,1
415,809,46,0.0938988863638246,1
415,810,46,0.106484820620724,1
415,811,46,0.0986415967365002,1
415,812,46,0.0809076206163059,1
416,810,46,0.0854070365993183,1
416,811,46,0.0767722430394287,1
397,842,47,0.0513180766373876,1
398,842,47,0.051380631806053,1
398,843,47,0.0622301337578387,1
399,841,47,0.047350094827975,1
399,842,47,0.0510284325149732,1
399,843,47,0.0586952029608603,1
400,840,47,0.0478837927002018,1
400,841,47,0.0488003260186241,1
400,842,47,0.0497943917341117,1
401,839,47,0.0493203669136198,1
401,840,47,0.0519566525011482,1
401,841,47,0.0500713798540372,1
401,842,47,0.0482973189524328,1
402,837,47,0.0469914524810827,1
402,838,47,0.0513022738924617,1
402,839,47,0.0569474147698771,1
402,840,47,0.0599196194271019,1
402,841,47,0.0528697082952503,1
402,842,47,0.0469563694669108,1
403,837,47,0.0468728139632065,1
403,838,47,0.0511870755061711,1
403,839,47,0.0580451504039336,1
403,840,47,0.0624841799968889,1
403,841,47,0.0547495561194763,1
403,842,47,0.0473484524240157,1
404,830,47,0.046859850189748,1
404,839,47,0.0498406321650232,1
404,840,47,0.0549848657221147,1
404,841,47,0.0530154536693663,1
405,818,47,0.0531910902202697,1
405,819,47,0.071323644127937,1
405,820,47,0.0615495629767286,1
406,818,47,0.0800882537569919,1
406,819,47,0.101710228627233,1
406,820,47,0.0795906542555003,1
406,821,47,0.0507507137985404,1
407,818,47,0.0866571389978839,1
407,819,47,0.0917213866192458,1
407,820,47,0.0693232363745477,1
407,821,47,0.0510232550594096,1
412,811,47,0.0562761806669667,1
413,809,47,0.0661521714018525,1
413,810,47,0.0811809442482381,1
413,811,47,0.0770209162301496,1
413,812,47,0.0678710866489759,1
414,808,47,0.0644763325850184,1
414,809,47,0.0817684186255857,1
414,810,47,0.0976435558856855,1
414,811,47,0.0907679466717475,1
414,812,47,0.0794607691535942,1
415,807,47,0.0651067165635318,1
415,809,47,0.0840528213220966,1
415,810,47,0.091292043240268,1
415,811,47,0.087206944509642,1
416,810,47,0.0728499177589947,1
397,842,48,0.0474029796601932,1
398,842,48,0.0491523584805802,1
398,843,48,0.060397791964773,1
399,842,48,0.0490882903443445,1
399,843,48,0.05573639065536,1
400,842,48,0.048067057368969,1
401,839,48,0.0471960597722288,1
401,840,48,0.0489164333360026,1
401,841,48,0.0482278288696763,1
401,842,48,0.0473383851493086,1
402,838,48,0.0493672056282854,1
402,839,48,0.0532074624853075,1
402,840,48,0.0563137632416302,1
402,841,48,0.0510176749128577,1
403,838,48,0.0468528865120149,1
403,839,48,0.0526731260602278,1
403,840,48,0.0585725547912864,1
403,841,48,0.0525036276705316,1
404,819,48,0.0519948736286646,1
404,840,48,0.0510634723836821,1
404,841,48,0.0499578842753541,1
405,818,48,0.0660589944598924,1
405,819,48,0.0779073771608398,1
405,820,48,0.0565951061769576,1
406,817,48,0.0494003816129914,1
406,818,48,0.0843668282493021,1
406,819,48,0.0948526139477431,1
406,820,48,0.0653974076825157,1
407,818,48,0.0738464226313256,1
407,819,48,0.0751327672188365,1
407,820,48,0.0562350256479643,1
408,819,48,0.0532088603983097,1
408,820,48,0.0474846741562588,1
412,811,48,0.0476888931382376,1
413,810,48,0.0742012624247428,1
413,811,48,0.0665494145563358,1
414,809,48,0.0745686374133524,1
414,810,48,0.0880358954144772,1
414,811,48,0.0797467257771016,1
414,812,48,0.0719750370705818,1
415,807,48,0.0601697077890102,1
415,808,48,0.0653844007635942,1
415,810,48,0.076063811794658,1
415,811,48,0.0770901388110353,1
398,842,49,0.0474548117431135,1
398,843,49,0.058093438806157,1
399,842,49,0.0482933438171056,1
399,843,49,0.053537559793859,1
399,844,49,0.0589108439850852,1
399,845,49,0.0639622285057357,1
400,842,49,0.0475381601485953,1
400,843,49,0.0489507771245746,1
401,841,49,0.047264721462095,1
401,842,49,0.0472896394051771,1
401,843,49,0.0474793068606579,1
402,839,49,0.0483604436412102,1
402,840,49,0.0516670371423759,1
402,841,49,0.049630341178214,1
402,842,49,0.0470028572651437,1
402,843,49,0.0467696761720149,1
403,840,49,0.0522518825228429,1
403,841,49,0.0498958526049735,1
403,842,49,0.0469466588613648,1
403,843,49,0.0469530328844364,1
403,844,49,0.0488494773301081,1
403,845,49,0.0503802611002346,1
404,818,49,0.0505943373823337,1
404,819,49,0.0566469842817051,1
405,817,49,0.047736298496651,1
405,818,49,0.0739564435620526,1
405,819,49,0.0734000799399139,1
405,820,49,0.0490272193796074,1
406,817,49,0.0547745574771202,1
406,818,49,0.0798218506573298,1
406,819,49,0.0764467939354277,1
406,820,49,0.0511314926443314,1
407,817,49,0.0506246887773933,1
407,818,49,0.0605312380055613,1
407,819,49,0.0574977437799199,1
408,818,49,0.0479241595954129,1
413,809,49,0.055236363502482,1
413,810,49,0.0635477041551267,1
414,808,49,0.0566716980029288,1
414,809,49,0.0668051578502652,1
414,810,49,0.0767621009792524,1
414,811,49,0.0679165332033677,1
415,807,49,0.0575613401924265,1
415,808,49,0.0615570472763822,1
397,843,50,0.0545338288043253,1
398,842,50,0.0468777382987203,1
398,843,50,0.0557364136662736,1
398,844,50,0.0622226552109134,1
398,845,50,0.0653201600455064,1
399,842,50,0.0485738986286416,1
399,843,50,0.0524522673113404,1
399,844,50,0.0567823862501507,1
399,845,50,0.0632513293404796,1
399,846,50,0.0790478210505679,1
400,841,50,0.0470127864743691,1
400,842,50,0.0497127029907745,1
400,843,50,0.0507179577630078,1
400,844,50,0.0552466263699547,1
400,845,50,0.0625988261212528,1
401,840,50,0.0470330590892649,1
401,841,50,0.0505725805635097,1
401,842,50,0.0518141113967533,1
401,843,50,0.0513645644356205,1
401,844,50,0.0553733302130534,1
402,840,50,0.0496926892486569,1
402,841,50,0.0539061601136187,1
402,842,50,0.0542840050679236,1
402,843,50,0.0525725453568118,1
402,844,50,0.0542264777838833,1
402,845,50,0.056437918626046,1
403,840,50,0.047326686976099,1
403,841,50,0.0514689189288696,1
403,842,50,0.0534533801191229,1
403,843,50,0.0532348339670539,1
403,844,50,0.0531841064079872,1
403,845,50,0.0531213153774572,1
403,846,50,0.0537720467563356,1
404,818,50,0.0527139531737112,1
404,819,50,0.0532079342090367,1
404,842,50,0.0494073999416443,1
404,843,50,0.0523736390195142,1
404,844,50,0.0529337936896711,1
404,845,50,0.0522130458533873,1
405,817,50,0.0560928987400144,1
405,818,50,0.0706672693224943,1
405,819,50,0.0604195200199551,1
406,817,50,0.0574068794347783,1
406,818,50,0.0659567857343381,1
406,819,50,0.055584679701889,1
407,817,50,0.0472526694960886,1
407,818,50,0.0474691475422964,1
413,810,50,0.0517176726577881,1
414,809,50,0.0582304285276421,1
415,808,50,0.0538341934812843,1
392,835,51,0.0519028012105581,1
392,836,51,0.0474152876226137,1
397,843,51,0.0512512932133452,1
397,844,51,0.0594464402576854,1
397,845,51,0.0651643013748561,1
398,842,51,0.0480988584515864,1
398,843,51,0.0542027535319451,1
398,844,51,0.0594368332012507,1
398,845,51,0.0651232499049649,1
398,846,51,0.0799312675515744,1
399,842,51,0.0512874606168213,1
399,843,51,0.0539603220515426,1
399,844,51,0.0576965350626495,1
399,845,51,0.0664691064678156,1
399,846,51,0.0828726203263684,1
400,822,51,0.0486621282241742,1
400,823,51,0.0470705755075517,1
400,841,51,0.050068060529748,1
400,842,51,0.0549884209082684,1
400,843,51,0.0560492182732426,1
400,844,51,0.0592444447052348,1
400,845,51,0.0666579225194925,1
400,846,51,0.0760210287535172,1
401,840,51,0.0473262238814625,1
401,841,51,0.0556025476763119,1
401,842,51,0.0614460944036538,1
401,843,51,0.0610552770467978,1
401,844,51,0.0612030071122132,1
401,845,51,0.0628086626425181,1
402,840,51,0.0478404056225787,1
402,841,51,0.0597484354879832,1
402,842,51,0.0675656627925492,1
402,843,51,0.0659055289242582,1
402,844,51,0.0624330037250067,1
402,845,51,0.0595288250811595,1
402,846,51,0.0597473597277717,1
403,841,51,0.0532758911896734,1
403,842,51,0.0619354502453424,1
403,843,51,0.0644619622694652,1
403,844,51,0.06551616125496,1
403,845,51,0.0622076578479641,1
403,846,51,0.0593857489730229,1
403,847,51,0.0602880011431822,1
404,818,51,0.0488313792465491,1
404,842,51,0.0514303181212786,1
404,843,51,0.0600811905570574,1
404,844,51,0.0699038247359958,1
404,845,51,0.0693042926399133,1
404,846,51,0.0612645613061363,1
405,817,51,0.0596523189018087,1
405,818,51,0.0607495137793953,1
405,819,51,0.0480303952308501,1
405,843,51,0.0514675267685958,1
405,845,51,0.0640236906560043,1
406,817,51,0.0583767779382405,1
406,818,51,0.0532782325501339,1
414,809,51,0.0509222313959065,1
414,810,51,0.0518419776131424,1
415,808,51,0.0517369558033984,1
415,809,51,0.0526186592276985,1
392,835,52,0.0507107380888608,1
392,836,52,0.0470355270097502,1
393,836,52,0.0474285879306838,1
396,844,52,0.0504872215794507,1
396,845,52,0.0596978517471266,1
397,832,52,0.0471026498447684,1
397,833,52,0.0496300823054358,1
397,843,52,0.0488364646584582,1
397,844,52,0.0550043732241327,1
397,845,52,0.0634373840825227,1
397,846,52,0.077172632936349,1
398,832,52,0.0484834024581178,1
398,833,52,0.0495869886169613,1
398,842,52,0.0507153862934112,1
398,843,52,0.0532991092015121,1
398,844,52,0.056606859001087,1
398,845,52,0.0639872873906636,1
398,846,52,0.0778076651194128,1
398,847,52,0.101776753178497,1
399,836,52,0.0477060161343322,1
399,837,52,0.0523969720859209,1
399,838,52,0.0479009070672038,1
399,840,52,0.0484906163795365,1
399,841,52,0.0509900733219751,1
399,842,52,0.0553822872111785,1
399,843,52,0.0555656209126865,1
399,844,52,0.0575034619919535,1
399,845,52,0.0664625426047066,1
399,846,52,0.0826951831714746,1
399,847,52,0.110507945208253,1
400,837,52,0.0525128090250644,1
400,838,52,0.0487099506553968,1
400,840,52,0.049610592061603,1
400,841,52,0.0559980420013604,1
400,842,52,0.0623589776159037,1
400,843,52,0.0627979625676866,1
400,844,52,0.0617830202008208,1
400,845,52,0.0670978164023633,1
400,846,52,0.0774995317279079,1
401,840,52,0.0483483168897345,1
401,841,52,0.062070397748244,1
401,842,52,0.0761890314338284,1
401,843,52,0.0779608660295405,1
401,844,52,0.0694607783579596,1
401,845,52,0.0651119975682067,1
402,841,52,0.0647795588991947,1
402,842,52,0.0860149101515867,1
402,843,52,0.0903818062830839,1
402,844,52,0.0782027049789174,1
402,845,52,0.0665813421989781,1
402,846,52,0.0660144856002305,1
403,841,52,0.0536227461960659,1
403,842,52,0.070658082215233,1
403,843,52,0.0829861043995946,1
403,844,52,0.0887532146246322,1
403,845,52,0.079171084762081,1
403,846,52,0.0696105851583289,1
403,847,52,0.0707133141606401,1
404,842,52,0.0522171935705667,1
404,843,52,0.0712312150406695,1
404,844,52,0.0974936627943901,1
404,845,52,0.0956871910209574,1
404,846,52,0.0738262190491706,1
405,817,52,0.0539421836988847,1
405,818,52,0.0476015063174162,1
405,843,52,0.0541733513370721,1
405,845,52,0.0803616176580228,1
406,817,52,0.0530287367192512,1
415,807,52,0.0508691797345645,1
415,808,52,0.0515774959247672,1
415,809,52,0.0488362230438652,1
416,808,52,0.0593320875224702,1
393,836,53,0.0492661819647823,1
396,844,53,0.0514422262690749,1
396,845,53,0.06146870837901,1
397,832,53,0.0524832572592529,1
397,833,53,0.0522432764411505,1
397,834,53,0.0491616779005947,1
397,843,53,0.047144049354728,1
397,844,53,0.0527491080969882,1
397,845,53,0.0614539986524809,1
397,846,53,0.0725018949487363,1
398,832,53,0.0539850300200379,1
398,833,53,0.0529475024414579,1
398,834,53,0.0491902229389355,1
398,835,53,0.0500833915509448,1
398,836,53,0.0516579190678555,1
398,837,53,0.0503659080428666,1
398,838,53,0.0497779044145057,1
398,839,53,0.0547351397820959,1
398,840,53,0.0556522512497227,1
398,841,53,0.0540275656938573,1
398,842,53,0.0552656391373301,1
398,843,53,0.0532977515576087,1
398,844,53,0.0548285295750068,1
398,845,53,0.0618451209039423,1
398,846,53,0.0737348772275715,1
398,847,53,0.0923094822912611,1
399,836,53,0.0537946262153214,1
399,837,53,0.0604799294209258,1
399,838,53,0.0579575823721675,1
399,839,53,0.0622137729982576,1
399,840,53,0.0630902299342532,1
399,841,53,0.0627881254021157,1
399,842,53,0.0641517003684507,1
399,843,53,0.0595333754893271,1
399,844,53,0.0583144816423533,1
399,845,53,0.065808463137897,1
399,846,53,0.0808999177129729,1
399,847,53,0.106397195061674,1
400,837,53,0.0548716635325802,1
400,838,53,0.0527417733682731,1
400,839,53,0.0560685186770381,1
400,840,53,0.0593125455040817,1
400,841,53,0.065286736693479,1
400,842,53,0.0726806437257062,1
400,843,53,0.0716827121767312,1
400,844,53,0.0645807963801072,1
400,845,53,0.0665603792566739,1
400,846,53,0.0779690118929606,1
401,840,53,0.0519177698098654,1
401,841,53,0.0681872853657032,1
401,842,53,0.0922895433346127,1
401,843,53,0.0991934559722985,1
401,844,53,0.0784014790034618,1
401,845,53,0.06627199498178,1
402,841,53,0.0671151033512174,1
402,842,53,0.104261644212617,1
402,843,53,0.121838645632851,1
402,844,53,0.0984868828588023,1
402,845,53,0.0737237629562949,1
403,841,53,0.0521565540604598,1
403,842,53,0.077325183788167,1
403,843,53,0.103178451475966,1
403,844,53,0.113223509145918,1
403,845,53,0.0939937603606639,1
403,846,53,0.0808997451311208,1
404,842,53,0.0520392904446721,1
404,843,53,0.0782892892941264,1
404,845,53,0.113767901340248,1
415,808,53,0.0546029535888281,1
415,809,53,0.0497665370231794,1
416,807,53,0.06366678563309,1
416,808,53,0.0641485133569149,1
393,836,54,0.0472069525634618,1
394,836,54,0.0497433707858963,1
397,831,54,0.0486522738004181,1
397,832,54,0.0521400207190266,1
397,833,54,0.049101055648673,1
397,838,54,0.0470742054791747,1
397,839,54,0.0496951169000433,1
397,840,54,0.0522126776787695,1
397,841,54,0.0515505789085648,1
397,842,54,0.0484569859292865,1
397,843,54,0.0480041570365993,1
397,844,54,0.0522484021221585,1
397,845,54,0.0587382793911496,1
398,831,54,0.0478120446715468,1
398,832,54,0.0536111774592454,1
398,833,54,0.0508178481390154,1
398,834,54,0.0475030368653245,1
398,835,54,0.050658698907718,1
398,836,54,0.0569898756582272,1
398,837,54,0.0620635635069,1
398,838,54,0.0680973299516495,1
398,839,54,0.0786584246176276,1
398,840,54,0.0811381381961837,1
398,841,54,0.0758211559578477,1
398,842,54,0.063789220951713,1
398,843,54,0.054908509758008,1
398,844,54,0.0540487127234705,1
398,845,54,0.0597102833932077,1
398,846,54,0.069900908102695,1
399,836,54,0.0551696721220941,1
399,837,54,0.0658792044390814,1
399,838,54,0.0752874868492629,1
399,839,54,0.0920294222143678,1
399,840,54,0.0915349004225724,1
399,841,54,0.0837386072966687,1
399,842,54,0.0748094236134314,1
399,843,54,0.0657993105470062,1
399,844,54,0.060053433642508,1
399,845,54,0.0649228190946402,1
399,846,54,0.0776118652554534,1
399,847,54,0.0988585091137024,1
400,837,54,0.0531730726749083,1
400,838,54,0.0579348533422432,1
400,839,54,0.0709585184561334,1
400,840,54,0.0723490737186833,1
400,841,54,0.0741498157746256,1
400,842,54,0.0813164094966961,1
400,843,54,0.0824868423595943,1
400,844,54,0.0682766482487314,1
400,845,54,0.0664566748217345,1
400,846,54,0.0781164313110422,1
401,839,54,0.047244445970835,1
401,840,54,0.0529252451352628,1
401,841,54,0.0691190202689331,1
401,842,54,0.101779364917193,1
401,843,54,0.11887439124628,1
401,844,54,0.0868704846834757,1
401,845,54,0.0681851338452801,1
402,841,54,0.0642552724906369,1
402,842,54,0.114345785919346,1
402,843,54,0.153794142986135,1
402,844,54,0.121786422364399,1
403,841,54,0.049309776140628,1
403,842,54,0.0824919622878739,1
403,843,54,0.129149650096048,1
403,845,54,0.114299591510261,1
416,808,54,0.0610197194325325,1
416,809,54,0.0586051382449668,1
417,808,54,0.0601634027986794,1
394,836,55,0.0475942895196334,1
396,843,55,0.0474360031975966,1
397,831,55,0.0480901229335049,1
397,837,55,0.052114225484863,1
397,838,55,0.0567336203714698,1
397,839,55,0.0563236579344852,1
397,840,55,0.0595173196243514,1
397,841,55,0.0599772099911546,1
397,842,55,0.0514322337798371,1
397,843,55,0.048120324757626,1
397,844,55,0.0510874497556701,1
398,830,55,0.0471294403009459,1
398,831,55,0.0489160709141131,1
398,832,55,0.0489002681691873,1
398,835,55,0.047001508250333,1
398,836,55,0.0575915362638192,1
398,837,55,0.0718538443412942,1
398,838,55,0.0893974224095004,1
398,839,55,0.104478901753524,1
398,840,55,0.109387313715149,1
398,841,55,0.100375883273919,1
398,842,55,0.0705774692321074,1
398,843,55,0.0564049554922909,1
398,844,55,0.0546171570752577,1
398,845,55,0.0589465799339311,1
399,836,55,0.0512007209779454,1
399,837,55,0.0651657222987719,1
399,838,55,0.0925056963516657,1
399,839,55,0.12652388624877,1
399,840,55,0.126481039927617,1
399,841,55,0.106253917608043,1
399,842,55,0.0825424654905328,1
399,843,55,0.0747009904357439,1
399,844,55,0.0651194761151319,1
399,845,55,0.0659969282731414,1
399,846,55,0.0744761738097145,1
400,837,55,0.0470244731421218,1
400,838,55,0.0620735617488663,1
400,839,55,0.0868290592862383,1
400,840,55,0.0860437830954465,1
400,841,55,0.0794709514828693,1
400,842,55,0.085191418586007,1
400,843,55,0.0930883326844256,1
400,844,55,0.0724846597744378,1
400,845,55,0.0664425806371446,1
401,839,55,0.0507878131440179,1
401,840,55,0.0539494839112294,1
401,841,55,0.0662013054551513,1
401,842,55,0.0998973022925313,1
401,843,55,0.125230304728927,1
401,844,55,0.0879847536589654,1
402,841,55,0.0597319251574637,1
402,842,55,0.111542665455372,1
402,843,55,0.166688170365441,1
397,830,56,0.0473553873381067,1
397,831,56,0.0479775219040887,1
397,837,56,0.0513539333935299,1
397,838,56,0.0575373225513396,1
397,839,56,0.0551488529979999,1
397,840,56,0.0575874173102819,1
397,841,56,0.0599064054099578,1
397,842,56,0.0499596388575173,1
397,844,56,0.048356796411402,1
398,829,56,0.0484045843262543,1
398,830,56,0.058422247503546,1
398,831,56,0.0521545233473332,1
398,836,56,0.054387680739221,1
398,837,56,0.0724747190597557,1
398,838,56,0.0974429467407802,1
398,839,56,0.111881155994665,1
398,840,56,0.115521240914141,1
398,841,56,0.105586267454929,1
398,842,56,0.0691842331981212,1
398,843,56,0.0570992637888298,1
398,844,56,0.0556459290012067,1
398,845,56,0.0586114892571249,1
399,830,56,0.0493232145141798,1
399,836,56,0.0471995890711046,1
399,837,56,0.0614492238879056,1
399,838,56,0.100567575689798,1
399,839,56,0.142071325088063,1
399,840,56,0.139701891313012,1
399,841,56,0.110867019009776,1
399,842,56,0.0807667708140617,1
399,843,56,0.0809188326839654,1
399,844,56,0.0720386162249032,1
399,845,56,0.0676891911295689,1
400,838,56,0.0631758765547324,1
400,839,56,0.0916438455930879,1
400,840,56,0.0880848511331954,1
400,841,56,0.0763416915874861,1
400,842,56,0.0814701166469233,1
400,843,56,0.0969156746661807,1
400,844,56,0.0776371715077027,1
401,839,56,0.0490143447734391,1
401,840,56,0.0498364326732883,1
401,841,56,0.0591945397863299,1
401,842,56,0.0902147585556878,1
414,812,56,0.049714946554852,1
415,811,56,0.0625045216445256,1
397,830,57,0.0477221554138697,1
397,831,57,0.0486261334025502,1
397,832,57,0.0472971467157443,1
397,838,57,0.0522434490230026,1
397,839,57,0.0505233602192848,1
397,840,57,0.0525150123200432,1
397,841,57,0.0550439865119229,1
397,842,57,0.0481555228263661,1
398,829,57,0.0561617876626526,1
398,830,57,0.0670068887772093,1
398,831,57,0.0549361976398166,1
398,836,57,0.050523590328421,1
398,837,57,0.0655068533404023,1
398,838,57,0.0922982587181448,1
398,839,57,0.104970737021154,1
398,840,57,0.104930582976894,1
398,841,57,0.094328223990074,1
398,842,57,0.0649829351064623,1
398,843,57,0.0573284007138906,1
398,844,57,0.0579235952527565,1
399,828,57,0.0509927253297694,1
399,829,57,0.0650761523175212,1
399,830,57,0.0671339550421974,1
399,831,57,0.0469934026560117,1
399,837,57,0.0589060174459543,1
399,838,57,0.102155742925755,1
399,839,57,0.141351773819287,1
399,840,57,0.134011142804809,1
399,841,57,0.104078834009394,1
399,842,57,0.0774018043777803,1
399,843,57,0.0812452942681655,1
399,844,57,0.0770228376414366,1
400,838,57,0.064852607044469,1
400,839,57,0.0905594792998423,1
400,840,57,0.0838333489807546,1
400,841,57,0.0720932959083834,1
414,812,57,0.0542296647954192,1
415,812,57,0.08113634909765,1
416,811,57,0.079703959994146,1
417,810,57,0.0609957190496309,1
396,832,58,0.0484589303514871,1
397,831,58,0.0476414360052686,1
397,832,58,0.0499387046788551,1
397,841,58,0.0469427268715006,1
398,829,58,0.0596721370511606,1
398,830,58,0.0703100306413326,1
398,831,58,0.057504181083004,1
398,837,58,0.0549386367966599,1
398,838,58,0.0771704584050123,1
398,839,58,0.087312950035943,1
398,840,58,0.0835314227831976,1
398,841,58,0.0743082574203293,1
398,842,58,0.0590433465784152,1
399,827,58,0.0492304862850353,1
399,828,58,0.0597317353174264,1
399,829,58,0.080640607727433,1
399,830,58,0.0861021272669202,1
399,831,58,0.0603858320424211,1
399,837,58,0.0579611087946791,1
399,838,58,0.0975760648760494,1
399,839,58,0.124595732764135,1
399,840,58,0.111563179684861,1
399,841,58,0.0876437146609894,1
400,827,58,0.0476698717417697,1
400,828,58,0.0483080708018199,1
400,829,58,0.0554027956879389,1
400,830,58,0.0544051690335692,1
400,838,58,0.0670941921834688,1
400,840,58,0.0776615228070369,1
414,813,58,0.0554778170190558,1
415,812,58,0.0892806650338122,1
416,811,58,0.0779631326045317,1
396,832,59,0.0489395247878164,1
397,832,59,0.0483713795779062,1
398,829,59,0.0578299580925241,1
398,830,59,0.0686435975354391,1
398,831,59,0.0603997363869736,1
398,832,59,0.0482837482661277,1
398,838,59,0.0600178990391563,1
398,839,59,0.0642495025040476,1
398,840,59,0.0589715237642909,1
398,841,59,0.0546279952155708,1
399,827,59,0.049620601809026,1
399,828,59,0.0624222691338048,1
399,829,59,0.0859701136555045,1
399,830,59,0.0995079921505171,1
399,831,59,0.077971623631656,1
399,832,59,0.0511408465807163,1
399,834,59,0.0475411285564518,1
399,837,59,0.0562807425805911,1
399,838,59,0.0853726928107463,1
399,839,59,0.0951318226208326,1
399,840,59,0.0816891978027339,1
400,827,59,0.0531256241710318,1
400,828,59,0.0550946277800635,1
400,829,59,0.0626165445247372,1
400,830,59,0.0672084413695728,1
400,831,59,0.0531313193721518,1
414,813,59,0.0649102033612502,1
415,812,59,0.0927206930703094,1
416,811,59,0.0756249246392579,1
398,829,60,0.0517747972508401,1
398,830,60,0.062706557466075,1
398,831,60,0.0607375078352161,1
398,832,60,0.0492116058304133,1
398,838,60,0.0470339191221613,1
399,828,60,0.0568560844537347,1
399,829,60,0.07861725234044,1
399,830,60,0.0996086533921308,1
399,831,60,0.0895614614599412,1
399,832,60,0.0612922319297596,1
399,833,60,0.0550979010825254,1
399,834,60,0.0542455710894563,1
399,837,60,0.0528702375462634,1
399,838,60,0.0703619029933517,1
400,827,60,0.0507657284196749,1
400,828,60,0.0552372149062858,1
400,829,60,0.0624060464397054,1
400,830,60,0.0733856923661754,1
400,831,60,0.0634410370650592,1
398,830,61,0.0544952740185615,1
398,831,61,0.0574852315956412,1
398,832,61,0.0493712785599954,1
399,829,61,0.0641005010856549,1
399,830,61,0.0874777369410764,1
399,831,61,0.0892550538869575,1
399,832,61,0.0678440200618349,1
399,833,61,0.0630608565030222,1
399,834,61,0.0583112716199039,1
400,828,61,0.0474576133218463,1
400,829,61,0.0545424291332893,1
400,830,61,0.0686023447200538,1
400,831,61,0.0663353440269651,1
400,832,61,0.0491069004207315,1
413,814,61,0.0481275703190509,1
414,813,61,0.0760635529218798,1
415,812,61,0.0931536721736385,1
398,830,62,0.0477322226885767,1
398,831,62,0.0516107064258437,1
398,832,62,0.0471669969883316,1
399,829,62,0.0510583179390321,1
399,830,62,0.0712878794154492,1
399,831,62,0.0781772203920876,1
399,832,62,0.0669138383952741,1
399,833,62,0.0623930107571419,1
399,834,62,0.055130772172626,1
400,830,62,0.0586180588729623,1
400,831,62,0.0633353939606477,1
400,832,62,0.0549382053420296,1
400,833,62,0.0495289378346362,1
413,814,62,0.050585685278814,1
414,813,62,0.0784517118278857,1
415,812,62,0.0904118585362666,1
399,830,63,0.0555660466145884,1
399,831,63,0.0620863213004664,1
399,832,63,0.0596588194849053,1
399,833,63,0.0536850079755827,1
400,831,63,0.0546860229869823,1
400,832,63,0.056831882725339,1
400,833,63,0.048383891762185,1
413,814,63,0.0516661454694733,1
414,813,63,0.0747601802582929,1
399,831,64,0.0488035648047156,1
399,832,64,0.0513779682928019,1
400,832,64,0.0551703336858605,1
413,814,64,0.0501355687975693,1
414,813,64,0.0691131179695906,1
400,832,65,0.0477813596182397,1
