x,y,z,signal,mito.p
143,515,1,0.154277498732099,1
143,517,1,0.18922379356081,1
144,513,1,0.116211027566154,1
144,514,1,0.133541248443312,1
144,515,1,0.146733014033896,1
144,516,1,0.158569160681528,1
144,517,1,0.176194807173146,1
144,518,1,0.198140810223473,1
145,509,1,0.0500507218063383,1
145,510,1,0.0642177589487142,1
145,511,1,0.0776074011382118,1
145,512,1,0.0903001232924752,1
145,513,1,0.106791349001004,1
145,514,1,0.122956837969112,1
145,515,1,0.138616788670531,1
145,516,1,0.153846078618167,1
145,517,1,0.169281960548249,1
145,518,1,0.184342580499079,1
146,510,1,0.0550326708951522,1
146,511,1,0.0681121950018455,1
146,512,1,0.0826417460773296,1
146,513,1,0.100748522009018,1
146,514,1,0.11645838338207,1
146,515,1,0.131396861403426,1
146,516,1,0.150009572540064,1
146,517,1,0.167716332502179,1
146,518,1,0.1816564820363,1
147,510,1,0.0485780636040061,1
147,511,1,0.0612706707037014,1
147,512,1,0.0765739119749715,1
147,513,1,0.0954251772530676,1
147,514,1,0.112650928582408,1
147,515,1,0.127389418753526,1
147,516,1,0.147733793183431,1
147,517,1,0.16816422843026,1
147,518,1,0.183163869460007,1
148,511,1,0.0549913950688533,1
148,512,1,0.0706503390428012,1
148,513,1,0.0907412597646812,1
148,514,1,0.112743294389663,1
148,515,1,0.13176115868234,1
148,516,1,0.154036102742809,1
148,517,1,0.175589228959511,1
148,518,1,0.18900543149605,1
149,511,1,0.0506630939922186,1
149,512,1,0.0659353165519343,1
149,513,1,0.0864322188227433,1
149,514,1,0.113441641101542,1
149,515,1,0.140976109149047,1
149,516,1,0.167486580035179,1
149,517,1,0.185207330632773,1
150,511,1,0.0490662343836435,1
150,512,1,0.0638090506065217,1
150,513,1,0.0833122150673622,1
150,514,1,0.109062031440271,1
150,515,1,0.141719557251613,1
150,516,1,0.172528156153901,1
150,517,1,0.18540515545713,1
151,511,1,0.049967364771764,1
151,512,1,0.0686164389046437,1
151,513,1,0.0899403131417169,1
151,514,1,0.108328972765203,1
151,515,1,0.133182703892802,1
151,516,1,0.1621484852836,1
151,517,1,0.173206701974613,1
151,518,1,0.167566761563674,1
152,511,1,0.0491763358525682,1
152,512,1,0.0695314161100327,1
152,513,1,0.091076672594278,1
152,514,1,0.102552278494644,1
152,515,1,0.117122673941797,1
152,516,1,0.140633212019797,1
152,517,1,0.153364885898084,1
152,518,1,0.152646646251384,1
152,519,1,0.153163828040363,1
153,512,1,0.062040397269617,1
153,513,1,0.0795686960911821,1
153,514,1,0.0902210520405618,1
153,515,1,0.101909974862878,1
153,516,1,0.12077473604181,1
153,517,1,0.13416227848544,1
153,518,1,0.13913126667716,1
153,519,1,0.1452306314839,1
154,512,1,0.0549141416791156,1
154,513,1,0.0671917239408307,1
154,514,1,0.0774173252390144,1
154,515,1,0.0892374505380412,1
154,516,1,0.104069721687602,1
154,517,1,0.117545338403098,1
154,518,1,0.129238322651667,1
154,525,1,0.225185030756387,1
154,526,1,0.229164561168071,1
155,512,1,0.0509423314289501,1
155,513,1,0.060624553013003,1
155,514,1,0.0700990608325717,1
155,515,1,0.0813440628621342,1
155,516,1,0.0933807151055603,1
155,517,1,0.106464122303926,1
155,518,1,0.122987511516962,1
155,519,1,0.146854638217814,1
156,513,1,0.0564625057872448,1
156,514,1,0.0662353501018463,1
156,515,1,0.0769757170430792,1
156,516,1,0.0885845388750977,1
156,517,1,0.10395780810923,1
156,518,1,0.124605926598867,1
156,519,1,0.15227413407631,1
156,521,1,0.174381351587431,1
157,513,1,0.0537381171642086,1
157,514,1,0.0649094900229281,1
157,515,1,0.0767520394572738,1
157,516,1,0.092974929149397,1
157,517,1,0.114752354246572,1
157,518,1,0.137825190231223,1
157,519,1,0.154083056512043,1
158,513,1,0.0520358330549013,1
158,514,1,0.0636084472143448,1
158,515,1,0.0769970078909025,1
158,516,1,0.0976521619673779,1
158,517,1,0.123224546938122,1
158,518,1,0.148660062994677,1
158,519,1,0.153844352799646,1
159,514,1,0.061251629172684,1
159,515,1,0.0735979047642716,1
159,516,1,0.0906681771030364,1
159,517,1,0.108407462991548,1
159,518,1,0.12778658712254,1
142,515,2,0.159538598966718,1
142,517,2,0.199191948757457,1
143,514,2,0.14798384127624,1
143,515,2,0.163552427145146,1
143,516,2,0.169814467605696,1
143,517,2,0.190481167408078,1
143,518,2,0.226305156009392,1
144,512,2,0.103605488010854,1
144,513,2,0.120751011789872,1
144,514,2,0.139742148906383,1
144,515,2,0.1580257004292,1
144,516,2,0.165943318597144,1
144,517,2,0.18129166701183,1
144,518,2,0.201357712936091,1
144,519,2,0.225676083652955,1
145,510,2,0.0622250656041147,1
145,511,2,0.0791343823548633,1
145,512,2,0.0928059772688991,1
145,513,2,0.109638650419121,1
145,514,2,0.126210201474355,1
145,515,2,0.145339392567107,1
145,516,2,0.161473114968967,1
145,517,2,0.17982170683912,1
145,518,2,0.195349839521888,1
145,519,2,0.211810719588086,1
146,510,2,0.0527813636451496,1
146,511,2,0.0674175472943307,1
146,512,2,0.0820267161309266,1
146,513,2,0.101050183581069,1
146,514,2,0.119478450739617,1
146,515,2,0.140497769782252,1
146,516,2,0.162365616264482,1
146,517,2,0.183586522415851,1
146,518,2,0.199607917042895,1
146,519,2,0.212514071173676,1
147,511,2,0.059190725727398,1
147,512,2,0.0738482404935013,1
147,513,2,0.0953277317866318,1
147,514,2,0.121515526383853,1
147,515,2,0.149855664044343,1
147,516,2,0.172532436183833,1
147,517,2,0.192123398785576,1
147,518,2,0.21175436586064,1
147,519,2,0.22217978242721,1
148,511,2,0.0529927476503556,1
148,512,2,0.0677750275900854,1
148,513,2,0.0911887299908601,1
148,514,2,0.125605382620869,1
148,515,2,0.164697415690314,1
148,516,2,0.189050624930392,1
148,517,2,0.204651449089274,1
148,518,2,0.224660059773149,1
149,511,2,0.0487497365250391,1
149,512,2,0.0636355253069426,1
149,513,2,0.0869923619874434,1
149,514,2,0.123788751529075,1
149,515,2,0.169658327051354,1
149,516,2,0.199483842196677,1
149,517,2,0.206010611712923,1
149,518,2,0.216935134995826,1
150,511,2,0.04730947193635,1
150,512,2,0.0624855031244219,1
150,513,2,0.0856770811760602,1
150,514,2,0.115198581883416,1
150,515,2,0.156394928486683,1
150,516,2,0.190788972894064,1
150,517,2,0.195862292568119,1
150,518,2,0.198646567093841,1
151,511,2,0.0471956973503393,1
151,512,2,0.0655122436469169,1
151,513,2,0.091216308570829,1
151,514,2,0.110515584831574,1
151,515,2,0.135736317020436,1
151,516,2,0.168272345207885,1
151,517,2,0.181335330220417,1
151,518,2,0.18556191730614,1
151,519,2,0.19000878786791,1
152,512,2,0.0646400955044959,1
152,513,2,0.0885811677762529,1
152,514,2,0.100812457832501,1
152,515,2,0.114828738974321,1
152,516,2,0.14206297212642,1
152,517,2,0.162984621346212,1
152,518,2,0.17114686853681,1
152,519,2,0.175122613653203,1
152,520,2,0.18126888620735,1
153,512,2,0.0571283610890973,1
153,513,2,0.0743914533785084,1
153,514,2,0.0855783010766346,1
153,515,2,0.098405435730058,1
153,516,2,0.120153337825064,1
153,517,2,0.141177868839633,1
153,518,2,0.153065421868284,1
153,519,2,0.161867855686595,1
153,520,2,0.171044884167663,1
154,512,2,0.0521583143953514,1
154,513,2,0.0639548765188354,1
154,514,2,0.0734841042909831,1
154,515,2,0.0860774998366225,1
154,516,2,0.102337920328854,1
154,517,2,0.120797160177129,1
154,518,2,0.137465874815107,1
154,519,2,0.155111023056015,1
155,512,2,0.0495410991024823,1
155,513,2,0.0591335378543336,1
155,514,2,0.0679362132872379,1
155,515,2,0.0806822459756213,1
155,516,2,0.0949945567683841,1
155,517,2,0.111048874260084,1
155,518,2,0.129980263539391,1
155,519,2,0.155366570757179,1
155,520,2,0.179090431509856,1
155,521,2,0.183222190620568,1
155,522,2,0.173795804374099,1
155,525,2,0.203672012562118,1
155,526,2,0.202806042850003,1
156,513,2,0.05710809422693,1
156,514,2,0.0673166386853957,1
156,515,2,0.0813435623747631,1
156,516,2,0.0961202851788546,1
156,517,2,0.114202715563938,1
156,518,2,0.1392579992839,1
156,519,2,0.172574810781257,1
156,520,2,0.201266934881876,1
156,521,2,0.199051582184398,1
156,522,2,0.173548333503614,1
157,513,2,0.0557106932175792,1
157,514,2,0.0702138622806024,1
157,515,2,0.0893051428931714,1
157,516,2,0.108392574930438,1
157,517,2,0.134173404262173,1
157,518,2,0.170917139080723,1
157,519,2,0.202530464148536,1
157,520,2,0.206109328532336,1
157,521,2,0.18607159753728,1
158,513,2,0.054578746107704,1
158,514,2,0.0724094025814563,1
158,515,2,0.0965546449370007,1
158,516,2,0.119930684224914,1
158,517,2,0.150998719672766,1
158,518,2,0.193404404841128,1
158,519,2,0.217412726507928,1
158,520,2,0.192620572585166,1
159,514,2,0.066660534258188,1
159,515,2,0.0881388462419957,1
159,516,2,0.109163026340133,1
159,517,2,0.132587308008442,1
159,518,2,0.158699713099929,1
159,519,2,0.169180298331893,1
160,516,2,0.0834787162855599,1
160,518,2,0.106946419547863,1
142,515,3,0.159581847978859,1
142,516,3,0.163672716696075,1
142,517,3,0.193041430689748,1
143,514,3,0.149174287881256,1
143,515,3,0.171448000857847,1
143,516,3,0.174200842475569,1
143,517,3,0.187053530748563,1
143,518,3,0.220441146827117,1
144,511,3,0.0975569773232049,1
144,512,3,0.109905139809709,1
144,513,3,0.120283165399686,1
144,514,3,0.144999670943935,1
144,515,3,0.170881150011828,1
144,516,3,0.179508482282977,1
144,517,3,0.18758355262734,1
144,518,3,0.206216697455269,1
144,519,3,0.231595802257095,1
145,510,3,0.0653022690601699,1
145,511,3,0.0839256975298244,1
145,512,3,0.0992178360352748,1
145,513,3,0.112415734034338,1
145,514,3,0.132793600849011,1
145,515,3,0.156346732128114,1
145,516,3,0.176360612311207,1
145,517,3,0.194325485691354,1
145,518,3,0.211055616457774,1
145,519,3,0.225309980017323,1
146,510,3,0.0564158396544313,1
146,511,3,0.0715327730636086,1
146,512,3,0.0875870790498518,1
146,513,3,0.103210241053127,1
146,514,3,0.12615305387039,1
146,515,3,0.154131586528859,1
146,516,3,0.179228209355133,1
146,517,3,0.200466960470012,1
146,518,3,0.220453526698643,1
146,519,3,0.232121831742359,1
147,510,3,0.0505422694375488,1
147,511,3,0.0627190754030822,1
147,512,3,0.0780605838236959,1
147,513,3,0.0973548379525441,1
147,514,3,0.131607721910348,1
147,515,3,0.174382018903926,1
147,516,3,0.197226264472714,1
147,517,3,0.209895912433349,1
147,518,3,0.235272048827318,1
147,519,3,0.247346312409049,1
148,511,3,0.0555854218038531,1
148,512,3,0.0703386907342414,1
148,513,3,0.0920646404176573,1
148,514,3,0.134946870101552,1
148,515,3,0.191400867603487,1
148,518,3,0.246023092832469,1
148,519,3,0.2563727344605,1
149,511,3,0.052278580935366,1
149,512,3,0.0669701058317939,1
149,513,3,0.0889346786894088,1
149,514,3,0.12924184332145,1
149,515,3,0.185578979898586,1
149,519,3,0.246186401286402,1
150,512,3,0.0658681304369036,1
150,513,3,0.0899860818488993,1
150,514,3,0.12026393978136,1
150,515,3,0.160593028061349,1
150,516,3,0.196432433974786,1
150,517,3,0.201542122397811,1
150,518,3,0.21573387326141,1
150,519,3,0.230844357862047,1
151,512,3,0.0654501774601658,1
151,513,3,0.0918776882499832,1
151,514,3,0.113790946770234,1
151,515,3,0.135125710922176,1
151,516,3,0.168391679805898,1
151,517,3,0.190452208173292,1
151,518,3,0.209287181724548,1
151,519,3,0.218003853867812,1
152,512,3,0.0606466607482597,1
152,513,3,0.083192253421953,1
152,514,3,0.100658399765841,1
152,515,3,0.114420088159412,1
152,516,3,0.144492556429663,1
152,517,3,0.176257523418207,1
152,518,3,0.198897938314184,1
152,519,3,0.206051755226469,1
152,520,3,0.208000664555185,1
153,512,3,0.0557510543600619,1
153,513,3,0.0713772250402921,1
153,514,3,0.0865488956602337,1
153,515,3,0.100217418617302,1
153,516,3,0.124722753007296,1
153,517,3,0.152307143231892,1
153,518,3,0.17588397575202,1
153,519,3,0.187840642059716,1
153,520,3,0.194460214590576,1
154,512,3,0.0516840594657234,1
154,513,3,0.0634957167485395,1
154,514,3,0.0764912912896328,1
154,515,3,0.0894469131319602,1
154,516,3,0.108230025836654,1
154,517,3,0.128670252227226,1
154,518,3,0.152305037733296,1
154,519,3,0.171729930571471,1
154,521,3,0.197540777640019,1
154,522,3,0.204341377028297,1
155,512,3,0.0511021767403844,1
155,513,3,0.0605709260788207,1
155,514,3,0.0719793803805269,1
155,515,3,0.0852658991606539,1
155,516,3,0.102720511284092,1
155,517,3,0.119379664887463,1
155,518,3,0.141647349004686,1
155,519,3,0.167633148049457,1
155,520,3,0.1912825915075,1
155,521,3,0.20652189120256,1
155,522,3,0.206341692738032,1
155,523,3,0.200185675061968,1
155,524,3,0.203729585867985,1
155,525,3,0.216705808230728,1
155,526,3,0.212170196080597,1
156,513,3,0.0600113064124053,1
156,514,3,0.0725801378077595,1
156,515,3,0.0878593959543132,1
156,516,3,0.105869439757888,1
156,517,3,0.125125812170196,1
156,518,3,0.156470484821541,1
156,519,3,0.193811767044874,1
156,520,3,0.214406212578502,1
156,521,3,0.21937668497415,1
156,522,3,0.204727707256998,1
156,523,3,0.187515704948543,1
157,513,3,0.0606604960600714,1
157,514,3,0.0797622696492492,1
157,515,3,0.101059974724812,1
157,516,3,0.117452972595843,1
157,517,3,0.143932735417754,1
157,518,3,0.198194931892298,1
157,519,3,0.245279242038914,1
157,520,3,0.231645643895987,1
157,521,3,0.203731288675593,1
157,522,3,0.179994645360402,1
158,513,3,0.0581125723808288,1
158,514,3,0.0847158462815744,1
158,515,3,0.113422588065067,1
158,516,3,0.12994328500121,1
158,517,3,0.160650509323562,1
158,518,3,0.218319057362526,1
158,519,3,0.256887879783624,1
158,520,3,0.218355759769744,1
158,521,3,0.171482919919259,1
159,514,3,0.0740599639096831,1
159,515,3,0.0994073194034467,1
159,516,3,0.119581942323605,1
159,518,3,0.17211497218901,1
159,519,3,0.181332845041746,1
160,515,3,0.0749344994343917,1
141,517,4,0.183794575591311,1
142,516,4,0.157417234345906,1
142,517,4,0.185960305253576,1
143,515,4,0.164316849695474,1
143,516,4,0.168592277445347,1
143,517,4,0.179446398838041,1
143,518,4,0.218408270674616,1
144,512,4,0.10608275092711,1
144,513,4,0.111951477346676,1
144,514,4,0.133896928135076,1
144,515,4,0.163346456457369,1
144,516,4,0.174445517520049,1
144,517,4,0.181252605985967,1
144,518,4,0.204251496399712,1
144,519,4,0.239486244536059,1
145,511,4,0.0806867561146901,1
145,512,4,0.0959113058141215,1
145,513,4,0.107248265207222,1
145,514,4,0.125536936658318,1
145,515,4,0.151620785206007,1
145,516,4,0.173774910464535,1
145,517,4,0.19296215809234,1
145,518,4,0.213664524810827,1
145,519,4,0.230417758534518,1
146,510,4,0.0546863393870445,1
146,511,4,0.0689447758783036,1
146,512,4,0.0846939226336267,1
146,513,4,0.100655258776132,1
146,514,4,0.126174718645559,1
146,515,4,0.164074694346034,1
146,516,4,0.193837401202642,1
146,517,4,0.215371704492006,1
146,518,4,0.237982642407641,1
147,510,4,0.0498313932832064,1
147,511,4,0.0610252247936151,1
147,512,4,0.0759014640463679,1
147,513,4,0.097685240155701,1
147,514,4,0.139785340391241,1
147,515,4,0.201628827520316,1
148,511,4,0.0546845560412392,1
148,513,4,0.0929816713470865,1
148,514,4,0.142654513682749,1
149,513,4,0.0888765473688861,1
149,514,4,0.130451204897459,1
150,513,4,0.0881924961870916,1
150,514,4,0.1181466365868,1
150,515,4,0.154110658102925,1
151,513,4,0.0860461589722774,1
151,514,4,0.109303887647834,1
151,515,4,0.127955843897644,1
151,516,4,0.161304203357568,1
151,517,4,0.199583364398067,1
151,518,4,0.231620124792787,1
151,519,4,0.238509546307623,1
151,520,4,0.234107558532861,1
152,512,4,0.0568558543445986,1
152,513,4,0.0759392882356244,1
152,514,4,0.0944469487988763,1
152,515,4,0.108769585739124,1
152,516,4,0.139433273412914,1
152,517,4,0.185535408733654,1
152,518,4,0.225310325181027,1
152,519,4,0.233068615783094,1
152,520,4,0.227841525678799,1
153,512,4,0.053026383853334,1
153,513,4,0.0670072166827283,1
153,514,4,0.0824541553568026,1
153,515,4,0.0964179831210346,1
153,516,4,0.121047070204457,1
153,517,4,0.155781940758863,1
153,518,4,0.192866294626215,1
153,519,4,0.2107002589188,1
153,520,4,0.21323424373712,1
154,512,4,0.0494860397389274,1
154,513,4,0.0610874520567615,1
154,514,4,0.0752845356995916,1
154,515,4,0.0890242831870299,1
154,516,4,0.108004933079661,1
154,517,4,0.129930847602401,1
154,518,4,0.159485386228981,1
154,519,4,0.1845873245763,1
154,520,4,0.200793232214175,1
154,521,4,0.216763036372891,1
155,514,4,0.0728364851381713,1
155,515,4,0.0882080860810665,1
155,516,4,0.106666284685501,1
155,517,4,0.124343303041767,1
155,518,4,0.152215134093798,1
155,519,4,0.182831960042009,1
155,520,4,0.205833105525289,1
155,521,4,0.228390865219556,1
155,522,4,0.238329485908577,1
155,523,4,0.230729441359448,1
155,524,4,0.229612330536127,1
155,525,4,0.234835002545007,1
155,526,4,0.223354834731016,1
156,513,4,0.058740833602561,1
156,514,4,0.0733691647774707,1
156,515,4,0.0917175092803015,1
156,516,4,0.112252322031293,1
156,517,4,0.137593010112836,1
156,518,4,0.18229657662036,1
156,519,4,0.227643171603428,1
156,520,4,0.232549949790186,1
156,521,4,0.234006931807618,1
156,522,4,0.228611862033925,1
156,523,4,0.213482140309506,1
156,524,4,0.208199110674211,1
156,525,4,0.208902991510814,1
157,513,4,0.0598755420220702,1
157,514,4,0.0809976335576437,1
157,515,4,0.104664737891887,1
157,516,4,0.121626346943829,1
157,517,4,0.156083015552616,1
157,518,4,0.231570904448562,1
157,519,4,0.294085734982387,2
157,520,4,0.259085997306803,1
157,521,4,0.220464848068142,1
157,522,4,0.19983480465115,1
157,523,4,0.18394503244999,1
157,526,4,0.210332820650178,1
158,513,4,0.0574073626639643,1
158,514,4,0.0857262554984578,1
158,515,4,0.11585621078365,1
158,516,4,0.129414344635374,1
158,517,4,0.163385045759503,1
158,518,4,0.228947706318153,1
158,519,4,0.277160402635762,1
158,520,4,0.232947440311991,1
158,521,4,0.189084059787876,1
158,526,4,0.205878068850494,1
159,514,4,0.0743250151181702,1
159,515,4,0.100730734572793,1
159,516,4,0.120200107506988,1
159,517,4,0.146996914696702,1
159,519,4,0.178174562631565,1
159,520,4,0.159184472511623,1
160,515,4,0.0773198970307638,1
160,516,4,0.0945834207748051,1
142,516,5,0.165784152107662,1
142,517,5,0.187415181772411,1
143,515,5,0.162614743920747,1
143,516,5,0.175093700440245,1
143,517,5,0.180763428478859,1
144,513,5,0.107077719820957,1
144,514,5,0.128481194560956,1
144,515,5,0.161762488713147,1
144,516,5,0.17860514284715,1
144,517,5,0.182609594078279,1
144,518,5,0.20766088540473,1
145,512,5,0.0918256318106552,1
145,513,5,0.105077967878605,1
145,514,5,0.126015770759756,1
145,515,5,0.156824680309377,1
145,516,5,0.180891104533058,1
145,517,5,0.198844529983681,1
145,518,5,0.222176215735599,1
145,519,5,0.241158125475751,1
146,512,5,0.0827752784090438,1
146,513,5,0.103330484582228,1
146,514,5,0.136524049626257,1
146,515,5,0.184667356533857,1
146,516,5,0.220534064896299,1
147,513,5,0.10139664740193,1
147,514,5,0.153272715683594,1
147,515,5,0.23050227762023,1
148,514,5,0.150622157576896,1
149,513,5,0.0891553015764317,1
149,514,5,0.128006076722068,1
150,513,5,0.0835209355593171,1
150,514,5,0.110577863869276,1
150,515,5,0.136803367601186,1
151,513,5,0.07629236769415,1
151,514,5,0.099226453622424,1
151,515,5,0.11741888192732,1
151,516,5,0.152455989326618,1
151,517,5,0.212260352840145,1
152,512,5,0.0522828609652986,1
152,513,5,0.0675763053400967,1
152,514,5,0.0858856636025334,1
152,515,5,0.102249500893284,1
152,516,5,0.132285243745404,1
152,517,5,0.190480269982447,1
152,518,5,0.252913273707454,1
153,512,5,0.0496642592648842,1
153,513,5,0.0616133377238157,1
153,514,5,0.0770216870957558,1
153,515,5,0.0923155226560853,1
153,516,5,0.116104521552482,1
153,517,5,0.154565054614102,1
153,518,5,0.207764457526916,1
153,519,5,0.237070121617281,1
153,520,5,0.230685996754541,1
154,512,5,0.0482437466691703,1
154,513,5,0.0583459145503529,1
154,514,5,0.0734636763524204,1
154,515,5,0.0885887096031906,1
154,516,5,0.106365347957229,1
154,517,5,0.127609529647721,1
154,518,5,0.163578440982989,1
154,519,5,0.1962046489409,1
154,520,5,0.208679348441379,1
154,521,5,0.217035186448229,1
155,514,5,0.0748085146823435,1
155,515,5,0.0942677743200045,1
155,516,5,0.110869561715731,1
155,517,5,0.130374164358672,1
155,518,5,0.169607933150535,1
155,519,5,0.202485707921553,1
155,520,5,0.212886433777812,1
155,521,5,0.225811226748622,1
155,522,5,0.239464200080814,1
155,523,5,0.237323310699799,1
155,524,5,0.241932557773501,1
155,525,5,0.246334016297249,1
155,526,5,0.23159545709339,1
156,513,5,0.059101834568099,1
156,514,5,0.0809805997288394,1
156,515,5,0.10687044901656,1
156,516,5,0.12519612201675,1
156,517,5,0.154942801772024,1
156,518,5,0.22188662338774,1
156,519,5,0.269973242909647,2
156,520,5,0.250690534506706,1
156,521,5,0.230260064743507,1
156,522,5,0.224923327635831,1
156,523,5,0.21902657392348,1
156,524,5,0.222220603787965,1
156,525,5,0.229034664560708,1
156,526,5,0.228109970997044,1
157,513,5,0.058889426577237,1
157,514,5,0.0854259573230392,1
157,515,5,0.116010786595867,1
157,516,5,0.13464214807799,1
157,517,5,0.170608723805526,1
157,518,5,0.259411946898175,2
157,519,5,0.326238976621832,2
157,520,5,0.28181976747932,2
157,521,5,0.228524006365739,1
157,522,5,0.204037379848515,1
157,523,5,0.195177602833472,1
157,524,5,0.204626758378964,1
157,525,5,0.22568057078111,1
157,526,5,0.23862299011175,1
157,527,5,0.217945498190882,1
158,513,5,0.0548147460377508,1
158,514,5,0.0845702677365821,1
158,515,5,0.119563119396267,1
158,516,5,0.139013600370384,1
158,517,5,0.168289407800332,1
158,518,5,0.225003313571561,1
158,519,5,0.271041133388744,2
158,520,5,0.241171563849302,1
158,521,5,0.20629866232957,1
158,525,5,0.223387809370228,1
158,526,5,0.240032822767182,1
158,527,5,0.211152837567802,1
159,514,5,0.0725533415988535,1
159,515,5,0.102565498264517,1
159,516,5,0.127199521188909,1
159,517,5,0.148043140400629,1
159,518,5,0.15957297727166,1
159,519,5,0.168712026239805,1
159,520,5,0.164020618699037,1
159,526,5,0.196602576670063,1
160,515,5,0.0786022894938612,1
160,516,5,0.0960461497679119,1
142,515,6,0.144150591242414,1
142,516,6,0.169942419790858,1
142,517,6,0.188966968753941,1
143,514,6,0.127265102292715,1
143,515,6,0.156249626072654,1
143,516,6,0.18048083144874,1
143,517,6,0.185796663141395,1
144,513,6,0.104735254836664,1
144,514,6,0.125983578491607,1
144,515,6,0.15523298089818,1
144,516,6,0.179525579391794,1
144,517,6,0.188744016011914,1
144,518,6,0.214212414664027,1
145,513,6,0.104827079887449,1
145,514,6,0.131031919818932,1
145,515,6,0.158245408632406,1
145,516,6,0.181394640850262,1
145,517,6,0.205665217899545,1
145,518,6,0.233973381895565,1
146,513,6,0.105231968417981,1
146,514,6,0.146012565339489,1
146,515,6,0.190618519551453,1
147,514,6,0.16235275316377,1
148,514,6,0.151733918362801,1
149,513,6,0.0875983601502521,1
149,514,6,0.123228527826177,1
149,515,6,0.165698079785281,1
150,513,6,0.0783540304995853,1
150,514,6,0.102673465471204,1
150,515,6,0.126313969189307,1
150,516,6,0.167354267281886,1
151,512,6,0.0551572462287414,1
151,513,6,0.0703250395097387,1
151,514,6,0.090820037627446,1
151,515,6,0.110822377837361,1
151,516,6,0.146806913582974,1
152,512,6,0.05065941224604,1
152,513,6,0.0632780565166447,1
152,514,6,0.0797037528959235,1
152,515,6,0.0964584593180854,1
152,516,6,0.123980950185054,1
152,517,6,0.179979458157415,1
153,512,6,0.0490590664840521,1
153,513,6,0.0594417230203941,1
153,514,6,0.0733186500693549,1
153,515,6,0.087582241005264,1
153,516,6,0.108779181290102,1
153,517,6,0.14552191513391,1
153,518,6,0.209175463738942,1
154,512,6,0.0486203461577757,1
154,513,6,0.0580432865199307,1
154,514,6,0.0729002713907152,1
154,515,6,0.0889315434524286,1
154,516,6,0.105679852840605,1
154,517,6,0.12877332961477,1
154,518,6,0.169988188498041,1
154,519,6,0.212456612922377,1
154,520,6,0.223053575849954,1
155,512,6,0.0490277658888057,1
155,513,6,0.0596723211384696,1
155,514,6,0.0815415885446149,1
155,515,6,0.107170603373768,1
155,516,6,0.121751284699307,1
155,517,6,0.148520168145348,1
155,518,6,0.199817362378629,1
155,519,6,0.229878106588393,2
155,520,6,0.224975447355172,1
155,521,6,0.232046632076661,1
155,522,6,0.253447610132534,1
155,523,6,0.255339728526446,1
155,524,6,0.246926294202815,1
155,525,6,0.243550685218986,1
155,526,6,0.228537904957563,1
156,513,6,0.063199876937634,1
156,514,6,0.0966879816759493,1
156,515,6,0.136920654227887,1
156,516,6,0.153354220339623,1
156,517,6,0.194664114296128,1
156,518,6,0.278362515773981,2
156,519,6,0.316954993414277,2
156,520,6,0.274562723608553,2
156,521,6,0.238388531912916,1
156,522,6,0.232539801977282,1
156,523,6,0.232245791534009,1
156,524,6,0.229551673767835,1
156,525,6,0.234008358484262,1
156,526,6,0.234174796422447,1
156,527,6,0.216404204185961,1
157,513,6,0.0604028428603118,1
157,514,6,0.0927746018881835,1
157,515,6,0.135942506311894,1
157,516,6,0.164974283002943,1
157,517,6,0.208461020892989,1
157,518,6,0.293104618658537,2
157,519,6,0.351695075940617,2
157,520,6,0.311711059321215,2
157,521,6,0.250748844161809,2
157,522,6,0.216887962622913,1
157,523,6,0.215260998986599,1
157,524,6,0.228158662090256,1
157,525,6,0.245564646400495,1
157,526,6,0.25608224468701,1
157,527,6,0.22742256597459,1
157,528,6,0.198274802773459,1
158,513,6,0.0539735015523162,1
158,514,6,0.082017638325505,1
158,515,6,0.12611751351431,1
158,516,6,0.167107383189699,1
158,517,6,0.194235559040942,1
158,518,6,0.229022560820146,1
158,519,6,0.272860031055529,2
158,520,6,0.271694344193564,2
158,521,6,0.242831824277618,1
158,522,6,0.216021279572476,1
158,523,6,0.219185096107382,1
158,524,6,0.238185069414722,1
158,525,6,0.255805446407122,1
158,526,6,0.264977274421713,1
158,527,6,0.225960199403373,1
158,528,6,0.188855170230137,1
159,513,6,0.047517438820884,1
159,514,6,0.070036971634907,1
159,515,6,0.104725325627439,1
159,516,6,0.141964335845205,1
159,517,6,0.155979915154159,1
159,518,6,0.1615986510082,1
159,519,6,0.185231100906538,1
159,520,6,0.204414942919128,1
159,521,6,0.202394239539929,1
159,522,6,0.192563574552139,1
159,523,6,0.195617226338108,1
159,524,6,0.20555847027128,1
159,525,6,0.214769992111859,1
159,526,6,0.220240307573076,1
159,527,6,0.196241696511822,1
160,514,6,0.0580478139171846,1
160,515,6,0.0779186064866845,1
160,516,6,0.0977647888840719,1
160,520,6,0.186279432109061,1
160,521,6,0.182597513348631,1
143,515,7,0.145707555679508,1
143,516,7,0.173372714210896,1
143,517,7,0.183188468126663,1
144,514,7,0.129721666892174,1
144,515,7,0.146722820199164,1
144,516,7,0.171594131664766,1
144,517,7,0.18968005395599,1
144,518,7,0.216377718624389,1
145,514,7,0.136388561366885,1
145,515,7,0.154009812774002,1
145,516,7,0.172918812434361,1
145,517,7,0.207204555976809,1
145,518,7,0.243426656394595,1
146,514,7,0.145351208671249,1
146,515,7,0.180304498817699,1
148,514,7,0.148810496842442,1
149,513,7,0.0909231265204461,1
149,514,7,0.122597844705787,1
149,515,7,0.164012484341073,1
150,513,7,0.079026806333708,1
150,514,7,0.100564883412905,1
150,515,7,0.126325474646115,1
151,513,7,0.0692272923702253,1
151,514,7,0.0877175279191415,1
151,515,7,0.10997546116172,1
151,516,7,0.147273620932936,1
152,512,7,0.0513907681135009,1
152,513,7,0.0626099864143566,1
152,514,7,0.0774481713687168,1
152,515,7,0.0944083134749149,1
152,516,7,0.1199650510244,1
153,512,7,0.0503542875314904,1
153,513,7,0.0591859682210079,1
153,514,7,0.0715596095416134,1
153,515,7,0.0853072440196937,1
153,516,7,0.10528095865307,1
153,517,7,0.138495417606662,1
154,512,7,0.0513314574836553,1
154,513,7,0.0596142818616013,1
154,514,7,0.0727481174771571,1
154,515,7,0.089323390547669,1
154,516,7,0.10762181287341,1
154,517,7,0.136881949871185,1
154,518,7,0.18098348184577,1
155,514,7,0.088813796607455,1
155,515,7,0.12366574669034,1
155,516,7,0.143617094715682,1
155,517,7,0.186030879725636,1
155,518,7,0.237231059947112,2
155,519,7,0.24873246683437,2
155,520,7,0.233056903228063,1
155,521,7,0.239904214770982,1
155,522,7,0.270345490459215,1
155,523,7,0.27353277812601,1
155,524,7,0.256813025281631,1
155,525,7,0.243927051722091,1
155,526,7,0.229646984972033,1
156,513,7,0.0674325676681937,1
156,514,7,0.114271989919379,1
156,515,7,0.174692229030385,1
156,516,7,0.201236169290371,1
156,517,7,0.265318066052367,2
156,518,7,0.335882459332812,2
156,519,7,0.333870454078961,2
156,520,7,0.279115732009377,2
156,521,7,0.245566579317239,1
156,522,7,0.248427042977944,1
156,523,7,0.252579523416366,1
156,524,7,0.247037574981062,1
156,525,7,0.24480749529887,1
156,526,7,0.238481127829307,1
156,527,7,0.21462039816244,1
157,513,7,0.0626607484897937,1
157,514,7,0.102226179332334,1
157,515,7,0.159386243707666,1
157,516,7,0.209176545251882,1
157,517,7,0.27417160710982,2
157,518,7,0.329327570480127,2
157,519,7,0.350133210178924,2
157,520,7,0.323312448628135,2
157,521,7,0.270730486054926,2
157,522,7,0.237215803711384,1
157,523,7,0.243133037136853,1
157,524,7,0.260373273836315,1
157,525,7,0.271685807144613,1
157,526,7,0.268414161468501,1
157,527,7,0.229728788769938,1
157,528,7,0.202456783203138,1
158,513,7,0.0555094800361916,1
158,514,7,0.080686911438357,1
158,515,7,0.127270222220995,1
158,516,7,0.191421243767494,1
158,517,7,0.2276755709698,1
158,518,7,0.238924893298394,2
158,519,7,0.27923716060053,2
158,520,7,0.318508575247068,2
158,521,7,0.294687470373449,2
158,522,7,0.253815876794046,1
158,523,7,0.265521367474166,1
158,524,7,0.286123636718423,1
158,525,7,0.285881216743477,1
158,526,7,0.275882169395301,1
158,527,7,0.228861737544883,1
158,528,7,0.192378831432172,1
159,513,7,0.0485425059897408,1
159,514,7,0.0671834745282993,1
159,515,7,0.100107875163032,1
159,516,7,0.148766476964695,1
159,517,7,0.162480302657945,1
159,518,7,0.166772171705597,1
159,519,7,0.218094332780151,1
159,520,7,0.280134678275212,2
159,521,7,0.271394235858183,2
159,522,7,0.239796799826222,1
159,523,7,0.249972985187415,1
159,524,7,0.255430966798933,1
159,525,7,0.241021509681612,1
159,526,7,0.227302425994601,1
159,527,7,0.195387600431132,1
160,514,7,0.0568615265348049,1
160,515,7,0.0755624442560618,1
160,516,7,0.0983558817275858,1
160,519,7,0.195560872610662,1
160,520,7,0.25342289641131,1
160,521,7,0.237248134045015,1
160,522,7,0.203223944052185,1
160,523,7,0.199263098502358,1
160,524,7,0.197172004738407,1
160,525,7,0.192094382023506,1
160,526,7,0.182037393194844,1
161,520,7,0.217834677630907,1
161,521,7,0.199101285757809,1
143,508,8,0.0574363966842194,1
143,509,8,0.0713556465560486,1
144,508,8,0.0515572808371554,1
144,509,8,0.0626618127445485,1
144,515,8,0.135944485250465,1
144,516,8,0.159869001169875,1
144,517,8,0.18978584663134,1
144,518,8,0.226295882611205,1
145,515,8,0.143261610616683,1
145,517,8,0.201959126174362,1
149,514,8,0.128729286726108,1
149,515,8,0.181021392325952,1
150,514,8,0.10329028451614,1
150,515,8,0.136411008513118,1
151,514,8,0.0855758043925073,1
151,515,8,0.108200065627126,1
151,516,8,0.143994381655331,1
152,513,8,0.0606652708246467,1
152,514,8,0.0748127026686217,1
152,515,8,0.0915485401416184,1
152,516,8,0.115957619879957,1
152,517,8,0.153403268101995,1
153,512,8,0.0496664798180481,1
153,513,8,0.058043447596326,1
153,514,8,0.0699306554612722,1
153,515,8,0.0840202033520458,1
153,516,8,0.105109722939396,1
153,517,8,0.136418763191006,1
154,517,8,0.143719424248533,1
154,518,8,0.186393934415214,1
154,526,8,0.227261512590191,1
155,515,8,0.12617882609364,1
155,516,8,0.153477202167444,1
155,517,8,0.208280316188362,2
155,518,8,0.249227086422548,2
155,519,8,0.241346423781871,2
155,520,8,0.220863328059232,1
155,521,8,0.232167416362232,1
155,522,8,0.25800266650467,1
155,523,8,0.258781148723216,1
155,524,8,0.239738006941932,1
155,525,8,0.227047971311834,1
155,526,8,0.219494362786382,1
156,514,8,0.116733812512598,1
156,515,8,0.184856011509139,1
156,516,8,0.227399532050061,2
156,517,8,0.319369758689151,2
156,518,8,0.359411509690816,2
156,519,8,0.311705697778342,2
156,520,8,0.255583437112554,2
156,521,8,0.240842070577233,1
156,522,8,0.246146730471328,1
156,523,8,0.245181514688787,1
156,524,8,0.235347363547583,1
156,525,8,0.232697771899256,1
156,526,8,0.222424802635394,1
157,513,8,0.0622884376602135,1
157,514,8,0.105128591888561,1
157,515,8,0.163997124556235,1
157,516,8,0.226776189411114,2
157,517,8,0.322058376846971,2
157,518,8,0.349700628013854,2
157,519,8,0.327074111709702,2
157,520,8,0.307897276520308,2
157,521,8,0.27800080722285,2
157,522,8,0.243237138510053,1
157,523,8,0.241675318770186,1
157,524,8,0.256515172015784,1
157,525,8,0.270236027543143,1
157,526,8,0.254242568165229,1
157,527,8,0.212125301788132,1
158,514,8,0.0786433812328511,1
158,515,8,0.117153692653352,1
158,516,8,0.182117586228797,1
158,517,8,0.233142987055901,2
158,518,8,0.237948471200921,2
158,519,8,0.280312598659292,2
158,520,8,0.361106102402247,2
158,521,8,0.347738004180623,2
158,522,8,0.277775346291239,2
158,523,8,0.281616535090263,2
158,524,8,0.299115667578819,1
158,525,8,0.291612913172459,1
158,526,8,0.262560622251922,1
158,527,8,0.210036255995494,1
159,514,8,0.0623565499645172,1
159,515,8,0.0875767529023665,1
159,516,8,0.134168468421203,1
159,517,8,0.153800540020121,1
159,518,8,0.163971064696564,1
159,519,8,0.245361437022351,2
159,520,8,0.369213100389253,2
159,521,8,0.359116279669121,2
159,522,8,0.283376662883672,2
159,523,8,0.288150391967903,2
159,524,8,0.2872962728763,1
159,525,8,0.253122074737607,1
159,526,8,0.220123780306524,1
160,519,8,0.205148530845209,1
160,520,8,0.299720440410478,2
160,521,8,0.283783311749096,2
160,522,8,0.228049475305148,1
160,523,8,0.227731119315269,1
160,524,8,0.223207633916614,1
160,525,8,0.200894871419617,1
161,519,8,0.163883186017464,1
161,520,8,0.230202330361244,1
161,521,8,0.21538228951227,1
161,522,8,0.169147289176311,1
162,520,8,0.162437226227655,1
142,508,9,0.0604099072107919,1
142,509,9,0.078432906158733,1
142,516,9,0.159910478341668,1
142,517,9,0.213186381036798,1
143,508,9,0.0561575018799916,1
143,509,9,0.0702336516663123,1
143,510,9,0.0920642032102986,1
143,516,9,0.151886917927435,1
143,517,9,0.202788876708445,1
144,508,9,0.0509562760426015,1
144,509,9,0.0629675012264817,1
144,510,9,0.0760117841189719,1
144,517,9,0.185422218049577,1
144,518,9,0.235951699171883,1
145,509,9,0.0589132716364717,1
145,517,9,0.190948714656387,1
149,515,9,0.184631586068641,1
150,515,9,0.141399843617831,1
150,516,9,0.197609281129854,1
151,516,9,0.142216316854758,1
152,517,9,0.144764625966804,1
154,517,9,0.18360242295716,1
154,518,9,0.22746081011302,1
154,519,9,0.223413558582565,1
154,526,9,0.227271499326701,1
155,516,9,0.166907740503166,1
155,517,9,0.238381697671572,2
155,518,9,0.268435101399892,2
155,519,9,0.238206584618953,1
155,520,9,0.212845359297007,1
155,521,9,0.229097300267571,1
155,522,9,0.243701360681344,1
155,523,9,0.240967963285627,1
155,524,9,0.227248603467653,1
155,525,9,0.21229926429507,1
156,515,9,0.17473874559226,1
156,516,9,0.233794103867582,2
156,517,9,0.339884218287049,2
156,518,9,0.353209930405793,2
156,519,9,0.27865427114772,2
156,520,9,0.23202346008665,2
156,521,9,0.243373731293278,2
156,522,9,0.251175880696697,1
156,523,9,0.239963905080902,1
156,524,9,0.227581801496814,1
156,525,9,0.218789446458666,1
156,526,9,0.199575172512819,1
157,514,9,0.100734865031787,1
157,515,9,0.152642699879699,1
157,516,9,0.215799753507093,2
157,517,9,0.321146385307624,2
157,518,9,0.33800344427355,2
157,519,9,0.293717790473666,2
157,520,9,0.283592735362528,2
157,521,9,0.285180718511175,2
157,522,9,0.256548583862354,2
157,523,9,0.242088019505891,2
157,524,9,0.248851755410556,1
157,525,9,0.256417283589261,1
157,526,9,0.22674899051122,1
157,527,9,0.19288080300725,1
158,515,9,0.103657826333874,1
158,516,9,0.153745670496603,1
158,517,9,0.208284918371085,2
158,518,9,0.224971443456202,2
158,519,9,0.273665919272192,2
158,520,9,0.388789497082676,2
158,521,9,0.398803202382826,2
158,522,9,0.304490694846752,2
158,523,9,0.286268881605168,2
158,524,9,0.294722884169504,2
158,525,9,0.281623024167902,1
158,526,9,0.238797297782392,1
158,527,9,0.19201712288104,1
159,518,9,0.157612148289691,1
159,519,9,0.254149327943257,2
159,520,9,0.430611648492647,2
159,521,9,0.441515600018777,2
159,522,9,0.321066974644734,2
159,523,9,0.302271844490405,2
159,524,9,0.293297243016418,2
159,525,9,0.248141385496313,1
159,526,9,0.203293091847601,1
160,519,9,0.194606241848384,2
160,520,9,0.310785836506538,2
160,521,9,0.314859619620394,2
160,522,9,0.24512566720144,2
160,523,9,0.237100426990513,2
160,524,9,0.225809063722742,1
160,525,9,0.188412256164854,1
161,520,9,0.208689818407074,2
161,521,9,0.208185051005991,2
161,522,9,0.170218320645116,1
161,523,9,0.16130809220197,1
141,516,10,0.156940344666669,1
141,517,10,0.191923134804375,1
142,509,10,0.0721382189644905,1
142,510,10,0.0995845379546611,1
142,511,10,0.117827946938674,1
142,512,10,0.112117650659355,1
142,513,10,0.113831664581878,1
142,514,10,0.118355851813398,1
142,515,10,0.123680577224166,1
142,516,10,0.152267575965929,1
143,508,10,0.0499852557571005,1
143,509,10,0.0640774614083968,1
143,510,10,0.0834635463407585,1
143,511,10,0.10067840775523,1
143,512,10,0.110655042473544,1
143,513,10,0.117979473804836,1
143,514,10,0.114206397310116,1
143,515,10,0.112595863466125,1
143,516,10,0.138542958154193,1
143,517,10,0.205314232434159,1
144,509,10,0.0571841050273324,1
144,510,10,0.070282941043278,1
144,511,10,0.0875413160953977,1
144,512,10,0.108825122579137,1
144,513,10,0.121237807667421,1
144,514,10,0.117850497634018,1
144,515,10,0.116324954599467,1
144,516,10,0.137647488450822,1
144,517,10,0.17332039889879,1
145,516,10,0.163290608970022,1
145,517,10,0.18400984268819,1
146,516,10,0.183439574721499,1
146,517,10,0.206818916075516,1
147,516,10,0.202533110403602,1
148,515,10,0.174079425389874,1
149,515,10,0.17641838120984,1
153,518,10,0.1888868792691,1
154,517,10,0.195212188236637,1
154,518,10,0.236763363127864,1
154,519,10,0.215359692795099,1
155,516,10,0.156051237480912,1
155,517,10,0.228115769747276,1
155,518,10,0.254948635038626,1
155,519,10,0.223767121270276,1
155,520,10,0.217146283139167,1
155,521,10,0.252728127896499,1
155,522,10,0.25061680753948,1
155,523,10,0.233744538359653,1
155,524,10,0.226067315206256,1
155,525,10,0.207359281359963,1
156,516,10,0.200506171066814,1
156,517,10,0.289519932513593,2
156,518,10,0.297242671254122,2
156,519,10,0.237940693512119,1
156,520,10,0.215654025391163,1
156,521,10,0.25377880621221,1
156,522,10,0.263347204312061,1
156,523,10,0.241002525677878,1
156,524,10,0.229602067668654,1
156,525,10,0.210496267169593,1
157,516,10,0.175952766878275,1
157,517,10,0.256113355442219,2
157,518,10,0.276923252160034,2
157,519,10,0.247665565824559,2
157,520,10,0.248205102716116,2
157,521,10,0.276415217209218,2
157,522,10,0.271941274307579,2
157,523,10,0.251212698158483,2
157,524,10,0.24698780237491,1
157,525,10,0.2353031135607,1
157,526,10,0.198095340658167,1
158,517,10,0.159525528767784,1
158,518,10,0.194278405362095,1
158,519,10,0.249747524255804,2
158,520,10,0.357337513035683,2
158,521,10,0.394035064950605,2
158,522,10,0.326152593652117,2
158,523,10,0.290807485174068,2
158,524,10,0.279636445973596,2
158,525,10,0.25335347248493,1
158,526,10,0.206140600363941,1
159,518,10,0.144766156192559,1
159,519,10,0.236247090269973,2
159,520,10,0.403400138617744,2
159,521,10,0.447129526591872,2
159,522,10,0.343572867739712,2
159,523,10,0.299048314634665,2
159,524,10,0.272192162298735,1
159,525,10,0.222109115911495,1
160,519,10,0.167288996825414,1
160,520,10,0.268592127874408,2
160,521,10,0.298630988705323,2
160,522,10,0.245621345291645,2
160,523,10,0.22455404849412,1
160,524,10,0.198542488731556,1
161,520,10,0.162835153956819,1
161,521,10,0.174115230371461,1
161,522,10,0.155884028677121,1
161,523,10,0.15040932963686,1
140,516,11,0.163269634522261,1
140,517,11,0.159803247484217,1
140,518,11,0.185213543579449,1
141,509,11,0.0755092142601393,1
141,510,11,0.101230543121992,1
141,511,11,0.122306641593975,1
141,512,11,0.11285479377159,1
141,513,11,0.106228525064868,1
141,514,11,0.114518367771467,1
141,515,11,0.129846731207677,1
141,516,11,0.148227630400546,1
141,517,11,0.172003323236144,1
141,518,11,0.215804332678903,1
142,508,11,0.0530224432343772,1
142,509,11,0.0701157782613138,1
142,510,11,0.0908497332114675,1
142,511,11,0.109022740305272,1
142,512,11,0.110380487757734,1
142,513,11,0.107440659455967,1
142,514,11,0.108722286806186,1
142,515,11,0.114781785205087,1
142,516,11,0.137472536474599,1
142,517,11,0.201244177088309,1
143,508,11,0.0472610684795585,1
143,509,11,0.0625590575097957,1
143,510,11,0.0784597368840094,1
143,511,11,0.0956809953324663,1
143,512,11,0.111892063167719,1
143,513,11,0.111680961046205,1
143,514,11,0.104632131427293,1
143,515,11,0.102814395811646,1
143,516,11,0.121245297719803,1
143,517,11,0.179020259728784,1
144,509,11,0.0548264470873246,1
144,510,11,0.0670054908642071,1
144,511,11,0.0833641391939369,1
144,512,11,0.105476574429721,1
144,513,11,0.108314682987847,1
144,514,11,0.103193005878828,1
144,515,11,0.105985552827995,1
144,516,11,0.124253387896812,1
144,517,11,0.147823328648311,1
145,510,11,0.0588506244241519,1
145,511,11,0.0703005789085648,1
145,512,11,0.0851581965794737,1
145,513,11,0.0902893771958164,1
145,514,11,0.100960049832435,1
145,515,11,0.126341306154683,1
145,516,11,0.159179847317986,1
145,517,11,0.162621209987473,1
146,513,11,0.0803765517409597,1
146,514,11,0.100891822473563,1
146,515,11,0.13686499082785,1
146,516,11,0.179748923319352,1
146,517,11,0.188089332508622,1
146,518,11,0.219706155235305,1
147,513,11,0.0834492105415757,1
147,514,11,0.107010378382259,1
147,515,11,0.136091605526669,1
147,516,11,0.178423172542273,1
147,517,11,0.212471708081709,1
148,514,11,0.111332414737662,1
148,515,11,0.14541211855959,1
148,516,11,0.197910586032744,1
149,514,11,0.105934077414236,1
149,515,11,0.153720841720811,1
149,516,11,0.22490155931155,1
150,515,11,0.132994463113966,1
150,516,11,0.195198933950394,1
150,517,11,0.229140169599638,1
153,518,11,0.177551058916223,1
154,517,11,0.207577954072057,1
154,518,11,0.242640557563641,1
154,519,11,0.204327202305509,1
155,516,11,0.147524255804043,1
155,517,11,0.22659417308441,1
155,518,11,0.258307998317442,1
155,519,11,0.216580536817002,1
155,520,11,0.225512361002576,1
155,521,11,0.278466525103526,1
155,522,11,0.26640763281209,1
155,523,11,0.235017686188205,1
155,524,11,0.226461515167414,1
155,525,11,0.201851849295084,1
156,516,11,0.163958707835952,1
156,517,11,0.229667004466879,1
156,518,11,0.24693950246723,1
156,519,11,0.209630136381083,1
156,520,11,0.206481438016422,1
156,521,11,0.257355116384599,1
156,522,11,0.271464073981008,1
156,523,11,0.24618594106813,1
156,524,11,0.235175449011957,1
156,525,11,0.203883344792768,1
157,517,11,0.18701364132981,1
157,518,11,0.213405513967164,1
157,519,11,0.207220318452636,1
157,520,11,0.208411731516023,1
157,521,11,0.247401009350715,2
157,522,11,0.271012162648501,2
157,523,11,0.251602295936917,1
157,524,11,0.243280168918515,1
157,525,11,0.216327646876361,1
158,518,11,0.171170592788748,1
158,519,11,0.224549377278656,1
158,520,11,0.28204732240407,2
158,521,11,0.328040017819652,2
158,522,11,0.316726103856537,2
158,523,11,0.271362664884702,2
158,524,11,0.25123444347185,1
158,525,11,0.221879835168224,1
159,519,11,0.202668207477442,1
159,520,11,0.302332041040425,2
159,521,11,0.357372098438848,2
159,522,11,0.318604622800502,2
159,523,11,0.260824909037858,2
159,524,11,0.225663151519503,1
160,520,11,0.198094305167055,1
160,521,11,0.233848386612803,2
160,522,11,0.218281733660641,2
160,523,11,0.190884836360189,1
161,521,11,0.129922172487968,1
161,522,11,0.13558473262699,1
140,517,12,0.155547517076399,1
140,518,12,0.17951247467649,1
141,510,12,0.0898662985380706,1
141,511,12,0.10602850269826,1
141,512,12,0.104658904625286,1
141,513,12,0.100208536404646,1
141,514,12,0.10600842567613,1
141,515,12,0.120690585130716,1
141,516,12,0.13955714116091,1
141,517,12,0.158635155981779,1
141,518,12,0.189977700123615,1
141,519,12,0.205000317550608,1
142,509,12,0.0658592022024206,1
142,510,12,0.0799846643766205,1
142,511,12,0.0956147354067087,1
142,512,12,0.105625708160867,1
142,513,12,0.101473239227901,1
142,514,12,0.0996854523163246,1
142,515,12,0.104967745602384,1
142,516,12,0.126121459885995,1
142,517,12,0.174147353606869,1
142,518,12,0.248955511620051,1
143,509,12,0.0583639378484428,1
143,510,12,0.0706190442002833,1
143,511,12,0.0872535876315419,1
143,512,12,0.107771682953791,1
143,513,12,0.10372913715517,1
143,514,12,0.0964442673371126,1
143,515,12,0.0958315902566269,1
143,516,12,0.111528778369005,1
143,517,12,0.154461885182905,1
144,509,12,0.0495517071336594,1
144,510,12,0.0600619246696323,1
144,511,12,0.0745712951738751,1
144,512,12,0.0948344468314432,1
144,513,12,0.0943821385606766,1
144,514,12,0.0918411584246176,1
144,515,12,0.097813215351777,1
144,516,12,0.113628788861981,1
144,517,12,0.129484401361878,1
145,510,12,0.051228408859754,1
145,511,12,0.0618762316591513,1
145,512,12,0.0758722574442607,1
145,513,12,0.080994348749725,1
145,514,12,0.0915017704596936,1
145,515,12,0.116026790686287,1
145,516,12,0.144264265155678,1
145,517,12,0.142115874216824,1
145,518,12,0.189352436073381,1
146,511,12,0.0532802287468901,1
146,512,12,0.0653787343261162,1
146,513,12,0.0771072301671237,1
146,514,12,0.0956942438659808,1
146,515,12,0.123958503038821,1
146,516,12,0.158739337893176,1
146,517,12,0.162345263111388,1
146,518,12,0.19638862119526,1
147,512,12,0.0620280404090052,1
147,513,12,0.0783854288912145,1
147,514,12,0.0993961130885156,1
147,515,12,0.116963864121476,1
147,516,12,0.150335084924078,1
147,517,12,0.183206175024691,1
147,518,12,0.214553712534781,1
148,513,12,0.0743464152678332,1
148,514,12,0.0977178005984678,1
148,515,12,0.118981092852718,1
148,516,12,0.160946441178122,1
148,517,12,0.21503160318876,1
149,513,12,0.0669766581894461,1
149,514,12,0.0923035052064493,1
149,515,12,0.127336355586728,1
149,516,12,0.183390757068262,1
149,517,12,0.232015268201403,1
150,514,12,0.0804764593751525,1
150,515,12,0.115734149392374,1
150,516,12,0.163609804858248,1
150,517,12,0.191600464268193,1
151,516,12,0.116374807743817,1
153,518,12,0.165042613910926,1
154,517,12,0.210240823017541,1
154,518,12,0.229204462092281,1
154,519,12,0.182073117638233,1
154,520,12,0.209446072083068,1
154,526,12,0.20438963091415,1
155,516,12,0.140660330381493,1
155,517,12,0.219624719612018,1
155,518,12,0.245803775814793,1
155,519,12,0.195304392967497,1
155,520,12,0.206367626037677,1
155,521,12,0.26162792089032,1
155,522,12,0.248394689633399,1
155,523,12,0.220152820079507,1
155,524,12,0.216340440944331,1
155,525,12,0.202896613805996,1
156,517,12,0.177784746249451,1
156,518,12,0.197720354809879,1
156,519,12,0.177095339277513,1
156,521,12,0.221361123153489,1
156,522,12,0.237687067222242,1
156,523,12,0.229055397393876,1
156,524,12,0.229305848177674,1
157,520,12,0.167922176629932,1
157,521,12,0.201598545157998,1
157,522,12,0.234280945766958,1
157,523,12,0.223768824077884,1
157,524,12,0.223546515641438,1
158,519,12,0.183769608750038,1
158,520,12,0.20102966935158,1
158,521,12,0.24018317607675,2
158,522,12,0.264515123232647,2
158,523,12,0.21869834625166,1
158,524,12,0.204754169807656,1
159,520,12,0.201372232822583,1
159,521,12,0.244798336955251,2
159,522,12,0.255978304390206,2
159,523,12,0.197321805786048,1
160,521,12,0.163108362534183,1
160,522,12,0.172096195283499,1
140,512,13,0.101196291377074,1
140,517,13,0.171224081657448,1
141,510,13,0.0795340934298319,1
141,511,13,0.0915849549124159,1
141,512,13,0.100521047622466,1
141,513,13,0.100722715269398,1
141,514,13,0.1026956825083,1
141,515,13,0.115517478629765,1
141,516,13,0.135194559575716,1
141,517,13,0.152809218356082,1
141,518,13,0.171464453661082,1
141,519,13,0.190744596347156,1
141,520,13,0.223222936174169,1
142,509,13,0.0600562869957964,1
142,510,13,0.0707763065366642,1
142,511,13,0.0851618553147387,1
142,512,13,0.10382869387293,1
142,513,13,0.10235555819414,1
142,514,13,0.0955069580400592,1
142,515,13,0.0987890276600386,1
142,516,13,0.116737517269691,1
142,517,13,0.146745244334483,1
142,518,13,0.191003791278127,1
142,519,13,0.222313751966283,1
142,520,13,0.255548759665734,1
142,521,13,0.250500579414805,1
143,509,13,0.0526035698210948,1
143,510,13,0.0631672302039411,1
143,511,13,0.0785723983170738,1
143,512,13,0.101019751647812,1
143,513,13,0.0989915236998604,1
143,514,13,0.0909245992189175,1
143,515,13,0.0913650338582583,1
143,516,13,0.104663426269811,1
143,517,13,0.132154035515965,1
143,518,13,0.193343080756341,1
144,510,13,0.0539802437500058,1
144,511,13,0.0663256219159623,1
144,512,13,0.0835223852468749,1
144,513,13,0.0852158849399093,1
144,514,13,0.0854823858359543,1
144,515,13,0.0929306216352292,1
144,516,13,0.106041250744403,1
144,517,13,0.11804221306081,1
144,518,13,0.17268243282424,1
145,511,13,0.0553019388535595,1
145,512,13,0.0678469309424074,1
145,513,13,0.075657047874666,1
145,514,13,0.086642331474972,1
145,515,13,0.105696765862113,1
145,516,13,0.125994623730143,1
145,517,13,0.128645319902323,1
145,518,13,0.172088256518302,1
146,511,13,0.0478686802826845,1
146,512,13,0.0600462197210893,1
146,513,13,0.0738918749384458,1
146,514,13,0.0916124299432735,1
146,515,13,0.111012977234843,1
146,516,13,0.134503415279799,1
146,517,13,0.143377930785013,1
146,518,13,0.175145682094104,1
147,512,13,0.0551417253675073,1
147,513,13,0.0710145730417022,1
147,514,13,0.0898184473432059,1
147,515,13,0.102447808946827,1
147,516,13,0.12746293862253,1
147,517,13,0.157514386423193,1
147,518,13,0.181810563113874,1
147,519,13,0.214468779252624,1
148,513,13,0.0633942271140356,1
148,514,13,0.0825853233171429,1
148,515,13,0.0974021138745684,1
148,516,13,0.130717406651627,1
148,517,13,0.17827723732812,1
148,518,13,0.192359640330216,1
148,519,13,0.2048233636249,1
149,513,13,0.0582838541163303,1
149,514,13,0.0791229977053517,1
149,515,13,0.10225005315521,1
149,516,13,0.141413546616889,1
149,517,13,0.183053302020082,1
149,518,13,0.184999484555535,1
150,514,13,0.0712893521139206,1
150,515,13,0.0956583698516532,1
150,516,13,0.126210316528923,1
150,517,13,0.148411901796784,1
153,518,13,0.145685039500534,1
154,517,13,0.191314116459154,1
154,518,13,0.194633808922896,1
154,519,13,0.156523283362833,1
155,517,13,0.192481276019591,1
155,518,13,0.207340826607243,1
155,519,13,0.165009558733516,1
155,521,13,0.216508834810174,1
155,522,13,0.212617252110331,1
155,523,13,0.199971075281585,1
155,524,13,0.203068919527153,1
156,518,13,0.153123881094325,1
156,522,13,0.19723489356532,1
156,523,13,0.208376731916413,1
157,522,13,0.197165101464323,1
157,523,13,0.195016756547295,1
158,521,13,0.183204127053379,1
158,522,13,0.21064896759235,1
158,523,13,0.17409893864462,1
159,521,13,0.170635957221791,1
159,522,13,0.191558676449066,1
140,511,14,0.083371088489849,1
140,512,14,0.0924552794399328,1
140,513,14,0.097301797796659,1
141,510,14,0.0663675190369288,1
141,511,14,0.0762560507197354,1
141,512,14,0.0895713504000678,1
141,513,14,0.0930753257655041,1
141,514,14,0.0947606911005752,1
141,515,14,0.10710701271399,1
141,516,14,0.130336092802094,1
141,517,14,0.151052300585122,1
141,518,14,0.159364647965237,1
141,519,14,0.171167095129878,1
142,510,14,0.0593128216350451,1
142,511,14,0.0715188342026856,1
142,512,14,0.0901299921026544,1
142,513,14,0.0927330902000201,1
142,514,14,0.086929266062308,1
142,515,14,0.091620368708471,1
142,516,14,0.107870491816859,1
142,517,14,0.126103937075276,1
142,518,14,0.152555891208082,1
142,519,14,0.18780083317916,1
142,520,14,0.229454268570498,1
143,510,14,0.0525421306817397,1
143,511,14,0.0644221016143537,1
143,512,14,0.0825293032479444,1
143,513,14,0.0862928359662421,1
143,514,14,0.0817072556171941,1
143,515,14,0.0846970060960512,1
143,516,14,0.0974055885225245,1
143,517,14,0.114760730219128,1
143,518,14,0.156686131598495,1
143,519,14,0.219195151876632,1
144,511,14,0.0542500179485126,1
144,512,14,0.0667291873189616,1
144,513,14,0.0726066924020725,1
144,514,14,0.0757481193180302,1
144,515,14,0.0834561425793025,1
144,516,14,0.0963658288853237,1
144,517,14,0.10912590973647,1
145,512,14,0.0555048145734559,1
145,513,14,0.0649396975997776,1
145,514,14,0.0753221240269835,1
145,515,14,0.0885310902754959,1
145,516,14,0.107073807965642,1
145,517,14,0.12160561411066,1
145,518,14,0.160356372320264,1
146,512,14,0.0496227015548935,1
146,513,14,0.0625905882141782,1
146,514,14,0.0773629792137815,1
146,515,14,0.0908483525566506,1
146,516,14,0.113758731491172,1
146,517,14,0.137678599206031,1
146,518,14,0.164270045497178,1
146,519,14,0.216619609348322,1
147,513,14,0.0579570991429815,1
147,514,14,0.0720724767842893,1
147,515,14,0.0833361464175229,1
147,516,14,0.108318755919558,1
147,517,14,0.141969789431732,1
147,518,14,0.160989460081127,1
148,513,14,0.0519454174225752,1
148,514,14,0.0651623281890135,1
148,515,14,0.0770741577315289,1
148,516,14,0.104727385104207,1
148,517,14,0.142798320387393,1
148,518,14,0.156282175009964,1
149,513,14,0.0483915659018759,1
149,514,14,0.0624730427146987,1
149,515,14,0.0775096450244422,1
149,516,14,0.103375608983829,1
149,517,14,0.133805816422613,1
150,514,14,0.0572056777588475,1
150,515,14,0.0727938516679691,1
150,516,14,0.0911207615047665,1
154,518,14,0.148826431900122,1
154,522,14,0.176285826841955,1
155,518,14,0.155557837471156,1
141,511,15,0.0686971266732386,1
141,512,15,0.0805351141939599,1
141,513,15,0.0844787188167604,1
141,514,15,0.0872014161376458,1
141,515,15,0.0997315086599272,1
141,516,15,0.123338577520546,1
141,517,15,0.147090730191515,1
142,511,15,0.0636528352667103,1
142,512,15,0.0775804035838117,1
142,513,15,0.0805775635768532,1
142,514,15,0.0781929138351738,1
142,515,15,0.0857923543478201,1
142,516,15,0.100402610450084,1
142,517,15,0.113768246503952,1
142,518,15,0.132004061886472,1
142,519,15,0.164739226520354,1
143,511,15,0.0557276062390871,1
143,512,15,0.0689813057036691,1
143,513,15,0.0746449013338046,1
143,514,15,0.0732354541111759,1
143,515,15,0.0792375632915179,1
143,516,15,0.0911097277716876,1
143,517,15,0.104559888663996,1
144,511,15,0.0467639895999875,1
144,513,15,0.0652019817459024,1
144,514,15,0.068697074898683,1
144,515,15,0.0769738704172615,1
144,516,15,0.0920590084965497,1
145,513,15,0.0589124605017668,1
145,514,15,0.0671213795779062,1
145,515,15,0.0788598218863242,1
145,516,15,0.103316125772131,1
146,513,15,0.0529302154926038,1
146,514,15,0.0642689869951521,1
146,515,15,0.0766274181018573,1
146,516,15,0.106160953517034,1
146,517,15,0.144605540015519,1
146,518,15,0.161511623732904,1
147,514,15,0.0568880868818463,1
147,515,15,0.0680889712372784,1
147,516,15,0.0929496056389624,1
147,517,15,0.127594261906537,1
148,514,15,0.0507775100074463,1
148,515,15,0.0606115345886247,1
148,516,15,0.0806861520782076,1
148,517,15,0.10640445500492,1
149,514,15,0.0489107323821542,1
149,515,15,0.0588191915161523,1
149,516,15,0.0749484670589567,1
142,513,16,0.0669853160456941,1
142,514,16,0.0701803583903774,1
142,515,16,0.0796338457403577,1
142,516,16,0.0941810922084126,1
143,513,16,0.0620476457074061,1
143,514,16,0.0649984214513259,1
143,515,16,0.0729695112297861,1
143,516,16,0.0848398636005084,1
144,514,16,0.060916826132298,1
144,515,16,0.0706054102339658,1
146,515,16,0.0640113913226765,1
147,515,16,0.0546305839433527,1
147,516,16,0.0763096488902757,1
148,515,16,0.0469795730969284,1
148,516,16,0.0602261190437401,1
