x,y,z,signal,mito.p
351,126,1,0.0504784601740914,1
354,124,1,0.0505381332258263,1
354,125,1,0.0469925943976709,1
355,124,1,0.0537981641432899,1
355,125,1,0.0489140919755422,1
356,124,1,0.0611158130077933,1
356,125,1,0.0545095465377319,1
356,126,1,0.0506078160249843,1
356,127,1,0.0477898736562777,1
357,124,1,0.0656054033306917,1
357,125,1,0.0572460906758858,1
357,126,1,0.0534098377178328,1
357,127,1,0.0494548599509776,1
357,128,1,0.0480084572010813,1
360,127,1,0.0622058860076157,1
360,128,1,0.0585476627354822,1
360,129,1,0.0544172325050325,1
360,130,1,0.054414891144572,1
360,131,1,0.0551196636540779,1
360,132,1,0.050223758124003,1
361,126,1,0.0673772264209469,1
361,127,1,0.0609080589742103,1
361,128,1,0.0551514877476089,1
361,129,1,0.0541459625971406,1
361,130,1,0.0558893154345243,1
361,131,1,0.0568464083645591,1
361,132,1,0.0531167362056476,1
362,125,1,0.0648775566275573,1
362,126,1,0.0612743294389663,1
362,127,1,0.057831764449243,1
362,128,1,0.0545679482364896,1
362,129,1,0.0561675001219578,1
362,130,1,0.0565390113222899,1
362,131,1,0.0563100987536369,1
362,132,1,0.0538868194407243,1
363,125,1,0.0608612835395571,1
363,126,1,0.058593166817158,1
363,127,1,0.0591648039332094,1
363,128,1,0.0579739201208349,1
363,129,1,0.0592588437844301,1
363,130,1,0.05843477694601,1
363,131,1,0.0589993267006676,1
363,132,1,0.0556873141293453,1
363,133,1,0.0468379639345349,1
364,126,1,0.0604688093969208,1
364,127,1,0.0625069665540973,1
364,128,1,0.0616621151079534,1
364,129,1,0.0605258764626887,1
364,130,1,0.0620494980859522,1
364,131,1,0.067335864303722,1
364,132,1,0.0612126832013888,1
364,133,1,0.0499865213573494,1
365,129,1,0.0640523392434564,1
365,130,1,0.0664757106000234,1
365,131,1,0.0737840803136111,1
365,132,1,0.0654125488636751,1
365,133,1,0.0525141494107825,1
350,126,2,0.0529023895453136,1
351,125,2,0.0521184767511535,1
351,126,2,0.0483703555922503,1
353,123,2,0.0487175442568902,1
354,123,2,0.055170782398676,1
354,124,2,0.0494100461967102,1
355,122,2,0.0756912420922995,1
355,123,2,0.059507488211509,1
355,124,2,0.0533308239932035,1
355,125,2,0.0480114198562094,1
356,123,2,0.0654809545571274,1
356,124,2,0.061522772520551,1
356,125,2,0.0545041217148469,1
356,126,2,0.0508103408284481,1
356,127,2,0.0484582285186218,1
356,128,2,0.0474563764852394,1
357,123,2,0.0697835294323392,1
357,124,2,0.0675083138430895,1
357,125,2,0.0587765753041352,1
357,126,2,0.055418103698222,1
357,127,2,0.0521975192394249,1
357,128,2,0.0509991856437671,1
357,129,2,0.0499182364711936,1
357,130,2,0.04771262026654,1
358,123,2,0.076694391365937,1
358,124,2,0.0745017734511124,1
358,125,2,0.0655454081261661,1
358,126,2,0.0626802674972686,1
358,127,2,0.0596260634493728,1
358,128,2,0.0577868183822223,1
360,126,2,0.0726379757391336,1
360,127,2,0.0652773942625508,1
360,128,2,0.0606930795137518,1
360,129,2,0.0575850241752658,1
360,130,2,0.0572097046687303,1
360,131,2,0.0534331190096839,1
360,132,2,0.0478970642446299,1
361,125,2,0.0718219512150223,1
361,126,2,0.0690514602265563,1
361,127,2,0.0608572048551187,1
361,128,2,0.0564875244030739,1
361,129,2,0.0578031618836182,1
361,130,2,0.0588788530624305,1
361,131,2,0.0547235767980038,1
361,132,2,0.0523593147257881,1
362,124,2,0.0719931409068693,1
362,125,2,0.0657998110343774,1
362,126,2,0.0618893076108137,1
362,127,2,0.0571508830207991,1
362,128,2,0.0547533356620378,1
362,129,2,0.0570389119151431,1
362,130,2,0.0568400055778455,1
362,131,2,0.053911176492787,1
362,132,2,0.0529507239693642,1
363,124,2,0.0681554152503449,1
363,125,2,0.0625987973576108,1
363,126,2,0.0593685195514529,1
363,127,2,0.0585732336132381,1
363,128,2,0.0576982148593435,1
363,129,2,0.0588435658264001,1
363,130,2,0.0569407473576568,1
363,131,2,0.057236213241216,1
363,132,2,0.0543750132312753,1
364,125,2,0.062338365590032,1
364,126,2,0.0599906656228916,1
364,127,2,0.0612519168091042,1
364,128,2,0.0608203126078637,1
364,129,2,0.0600309749908186,1
364,130,2,0.0599885256079253,1
364,131,2,0.0664858526601997,1
364,132,2,0.0606728184043128,1
364,133,2,0.0490417220079139,1
365,127,2,0.0660377956557236,1
365,128,2,0.0669009005090934,1
365,129,2,0.0639196410573607,1
365,130,2,0.0651217024210242,1
365,131,2,0.0732790655452068,1
365,132,2,0.0650849827556213,1
365,133,2,0.0513032576090188,1
366,129,2,0.0680714311683745,1
366,130,2,0.0685923177144456,1
366,131,2,0.0720799956003133,1
350,126,3,0.0474265198248225,1
351,125,3,0.0484483913530509,1
353,122,3,0.0573727772607993,1
353,123,3,0.0473265517869815,1
354,122,3,0.0713616006299468,1
354,123,3,0.0574197022663909,1
354,124,3,0.048968737142652,1
355,121,3,0.0825407396720116,1
355,122,3,0.0798019462170518,1
355,123,3,0.0666667759685063,1
355,124,3,0.056607698899434,1
355,125,3,0.050260834458567,1
356,122,3,0.0753518311164619,1
356,123,3,0.0690683790007925,1
356,124,3,0.0631254538902711,1
356,125,3,0.0563692080379883,1
356,126,3,0.0507743920286513,1
356,127,3,0.0484776037078866,1
356,128,3,0.047176043153747,1
357,121,3,0.0712227815408292,1
357,122,3,0.0706304230970665,1
357,123,3,0.0696674623840595,1
357,124,3,0.067068224367453,1
357,125,3,0.0622219591307765,1
357,126,3,0.0584289551848651,1
357,127,3,0.057555196278491,1
357,128,3,0.05561297162018,1
357,129,3,0.0516557387837904,1
358,122,3,0.0744801949668689,1
358,123,3,0.075257089432376,1
358,124,3,0.0723971320117705,1
358,125,3,0.0690029187042831,1
358,126,3,0.069508111807268,1
358,127,3,0.0708343343080756,1
358,128,3,0.0660376518375135,1
358,129,3,0.0581041388809885,1
359,123,3,0.084721748580917,1
359,124,3,0.0795690239967012,1
359,125,3,0.0758637088898523,1
359,126,3,0.0776183025585375,1
359,127,3,0.0751493523348254,1
360,124,3,0.0794217196331876,1
360,125,3,0.0772149845228595,1
360,126,3,0.077106551345172,1
360,127,3,0.0688104841864399,1
360,128,3,0.0590022318285116,1
360,129,3,0.0569838698097734,1
360,130,3,0.056469328523132,1
360,131,3,0.051814065374926,1
361,125,3,0.0713809585610263,1
361,126,3,0.0684509674248302,1
361,127,3,0.0596510878179303,1
361,128,3,0.0537562612695949,1
361,129,3,0.0570419320975552,1
361,130,3,0.0581200681859392,1
361,131,3,0.0526640194911643,1
361,132,3,0.0500805497031132,1
362,124,3,0.0705198786680547,1
362,125,3,0.0656411047631671,1
362,126,3,0.061223964301789,1
362,127,3,0.0562389605141927,1
362,128,3,0.0547961302086354,1
362,129,3,0.0578981221713834,1
362,130,3,0.0587895246957727,1
362,131,3,0.0547639379404864,1
362,132,3,0.0518500544438216,1
362,133,3,0.0467777443736015,1
363,124,3,0.0674243412665759,1
363,125,3,0.0628512788545351,1
363,126,3,0.0591922329422398,1
363,127,3,0.0581979716339866,1
363,128,3,0.0591997229946219,1
363,129,3,0.0605755570251859,1
363,130,3,0.0611253740424008,1
363,131,3,0.0609447786396132,1
363,132,3,0.0561548901412962,1
363,133,3,0.0485740424468517,1
364,124,3,0.0648547930812626,1
364,125,3,0.0620980223500402,1
364,126,3,0.0609601786935508,1
364,127,3,0.062993077856966,1
364,128,3,0.0648917486085301,1
364,129,3,0.0648211166091854,1
364,130,3,0.0665296769451816,1
364,131,3,0.0716819700747671,1
364,132,3,0.0665547415828379,1
364,133,3,0.0540611673804652,1
365,125,3,0.0617082002151981,1
365,126,3,0.063929512739302,1
365,127,3,0.0685520371101606,1
365,128,3,0.0698670532960372,1
365,129,3,0.0682758428667548,1
365,130,3,0.0696933611673344,1
365,131,3,0.0758446213370077,1
365,132,3,0.0706272878600863,1
365,133,3,0.0557124593051993,1
366,127,3,0.0775172328732071,1
366,128,3,0.0765512404723312,1
366,129,3,0.073064879961268,1
366,130,3,0.0720573068394878,1
366,131,3,0.0729432730355353,1
366,132,3,0.0662889195087446,1
366,133,3,0.0537221073210602,1
367,132,3,0.0628894827238663,1
351,124,4,0.0518226254347912,1
352,122,4,0.0517139851588812,1
352,123,4,0.0471662376281823,1
353,121,4,0.0685358661906169,1
353,122,4,0.0575852370262168,1
353,123,4,0.0485994867645827,1
354,121,4,0.0773073215664725,1
354,122,4,0.0703489190853438,1
354,123,4,0.0593947692511604,1
354,124,4,0.0524577093924106,1
354,125,4,0.0482429556690147,1
355,121,4,0.0808314832558786,1
355,122,4,0.0787118214426738,1
355,123,4,0.0692037752165097,1
355,124,4,0.0614270010980808,1
355,125,4,0.0549242262120078,1
355,126,4,0.0498590926704717,1
355,127,4,0.0470328807546843,1
356,121,4,0.0772170324941713,1
356,122,4,0.0771426382104504,1
356,123,4,0.0741888365313901,1
356,124,4,0.0694847384717624,1
356,125,4,0.0631510190152986,1
356,126,4,0.0572130700148466,1
356,127,4,0.0545293646870838,1
356,128,4,0.0519698607655639,1
356,129,4,0.0478891887594448,1
357,120,4,0.0761387295766636,1
357,121,4,0.0767002418907239,1
357,122,4,0.0782796764849633,1
357,123,4,0.0806117290308448,1
357,124,4,0.0767333833590595,1
357,125,4,0.071296520013512,1
357,126,4,0.0688087813788324,1
357,127,4,0.0684107385951009,1
357,128,4,0.0627695383366423,1
357,129,4,0.0543664301604965,1
358,121,4,0.0829161512222017,1
358,122,4,0.0855829435284567,1
358,123,4,0.0894899723040644,1
358,124,4,0.0844373164304366,1
358,125,4,0.0807265419843323,1
358,126,4,0.0834034130707512,1
358,127,4,0.0834831688973446,1
358,128,4,0.0717886831866618,1
358,129,4,0.059135637600201,1
358,130,4,0.0500242592556798,1
359,122,4,0.0919826007578874,1
359,123,4,0.0962604216427767,1
359,124,4,0.092145725124512,1
359,125,4,0.0899822562845106,1
359,126,4,0.0925540365284447,1
359,127,4,0.0844546436483896,1
359,128,4,0.0676099933176307,1
359,129,4,0.0574904493203036,1
359,130,4,0.0532243812595438,1
359,131,4,0.0486562949575725,1
360,123,4,0.092232850196191,1
360,124,4,0.0902941347022066,1
360,125,4,0.089028298591456,1
360,126,4,0.0866058419187052,1
360,127,4,0.0727896176598637,1
360,128,4,0.0592832008364927,1
360,129,4,0.0560078331451041,1
360,130,4,0.0549867468643028,1
360,131,4,0.0499547835547443,1
361,124,4,0.0839081459554638,1
361,125,4,0.0807108485412461,1
361,126,4,0.0746643513085386,1
361,127,4,0.0627665354124154,1
361,128,4,0.0553277628513651,1
361,129,4,0.056479965317951,1
361,130,4,0.0572371049141187,1
361,131,4,0.0519412524472107,1
361,132,4,0.0489661369094134,1
362,122,4,0.0852252618872079,1
362,123,4,0.0845053424438142,1
362,124,4,0.0816409151532389,1
362,125,4,0.0752854964052351,1
362,126,4,0.0678346258563512,1
362,127,4,0.0606111491558216,1
362,128,4,0.0569144573888504,1
362,129,4,0.0579490625814011,1
362,130,4,0.0599389198308974,1
362,131,4,0.0569492383847811,1
362,132,4,0.0542893033307837,1
362,133,4,0.0485468550524143,1
363,121,4,0.0724060544935252,1
363,122,4,0.0793410721336916,1
363,123,4,0.0820480357423919,1
363,124,4,0.0793646065455925,1
363,125,4,0.0720117567359847,1
363,126,4,0.066199763723939,1
363,127,4,0.0634678332739652,1
363,128,4,0.0623842148354121,1
363,129,4,0.0629430176143942,1
363,130,4,0.0666193504755435,1
363,131,4,0.066277120662788,1
363,132,4,0.0617397309195805,1
363,133,4,0.052085749479263,1
364,122,4,0.0785197378412634,1
364,123,4,0.0800337639135489,1
364,124,4,0.0765513382687141,1
364,125,4,0.0703648771539366,1
364,126,4,0.0677842089446183,1
364,127,4,0.0685743231799978,1
364,128,4,0.0695630618689832,1
364,129,4,0.0718927500434906,1
364,130,4,0.0781719106237706,1
364,131,4,0.0782738144547196,1
364,132,4,0.0714355749644942,1
364,133,4,0.0560348076885905,1
365,124,4,0.0735040720112735,1
365,125,4,0.0699132074360228,1
365,126,4,0.0705510814669181,1
365,127,4,0.0736182521646366,1
365,128,4,0.0755685306427132,1
365,129,4,0.0790750141977337,1
365,130,4,0.0840587696432664,1
365,131,4,0.0813141486744333,1
365,132,4,0.0729546634377753,1
365,133,4,0.0555906222703304,1
366,126,4,0.0758068259113933,1
366,127,4,0.0803875394522114,1
366,128,4,0.080616446268136,1
366,129,4,0.081355947999017,1
366,130,4,0.0800585581729703,1
366,131,4,0.0733952591535113,1
366,132,4,0.065219901494881,1
366,133,4,0.0519363223589684,1
367,128,4,0.085199207780266,1
367,129,4,0.0825383637951808,1
367,130,4,0.0780065426930685,1
367,131,4,0.0703405431127875,1
367,132,4,0.0621645641594896,1
367,133,4,0.0528308313566959,1
368,129,4,0.08781709038963,1
368,130,4,0.0840827240043408,1
368,131,4,0.0764910496750399,1
368,132,4,0.0673079060436784,1
369,129,4,0.0970950562432751,1
369,130,4,0.097593829301361,1
369,131,4,0.0898801511080675,1
370,130,4,0.104025713315311,1
350,124,5,0.0488948433463023,1
351,123,5,0.0518644190066465,1
351,124,5,0.0486372246629131,1
352,121,5,0.0614664245458336,1
352,122,5,0.05291620759894,1
352,123,5,0.0483551281201648,1
353,120,5,0.0710421286107575,1
353,121,5,0.0670277999449579,1
353,122,5,0.0584063469622373,1
353,123,5,0.051043521921577,1
354,120,5,0.0762600546187046,1
354,121,5,0.0737820323422993,1
354,122,5,0.067823574865087,1
354,123,5,0.0606688835380844,1
354,124,5,0.0545943072380369,1
354,125,5,0.0511617347375513,1
354,126,5,0.049697475518689,1
354,127,5,0.0477152463870565,1
355,120,5,0.0766116268623883,1
355,121,5,0.0766931085075029,1
355,122,5,0.0739361134198728,1
355,123,5,0.0688458001861123,1
355,124,5,0.0636752939183996,1
355,125,5,0.0586475070896625,1
355,126,5,0.0539664372018361,1
355,127,5,0.0508699506001706,1
355,128,5,0.0484594826134139,1
356,119,5,0.0749201348715669,1
356,120,5,0.0760711695342867,1
356,121,5,0.0765021812045017,1
356,122,5,0.074306658161833,1
356,123,5,0.0729325959716174,1
356,124,5,0.0700664198516072,1
356,125,5,0.0663202373621761,1
356,126,5,0.0617114274958327,1
356,127,5,0.0597685470264837,1
356,128,5,0.0571232641717314,1
356,129,5,0.0515305248973483,1
357,119,5,0.0760191188476871,1
357,120,5,0.0796786422364399,1
357,121,5,0.0810090124544269,1
357,122,5,0.0815319239608962,1
357,123,5,0.0845438454550224,1
357,124,5,0.0800509703242054,1
357,125,5,0.0768684344110725,1
357,126,5,0.0770267322385661,1
357,127,5,0.0763551989937788,1
357,128,5,0.0682968288199727,1
357,129,5,0.0568761154540375,1
358,119,5,0.0786062071019043,1
358,120,5,0.083424341496685,1
358,121,5,0.0859157273611729,1
358,122,5,0.0879969782068239,1
358,123,5,0.0931244080442472,1
358,124,5,0.0885062787578893,1
358,125,5,0.088311663955981,1
358,126,5,0.0935500581715896,1
358,127,5,0.0891454701635892,1
358,128,5,0.0731981591729325,1
358,129,5,0.0584453447080882,1
358,130,5,0.0482469825788975,1
359,121,5,0.0901912068856017,1
359,122,5,0.0912358390837607,1
359,123,5,0.0949442664166761,1
359,124,5,0.0951480510676604,1
359,125,5,0.0975943470469174,1
359,126,5,0.0998677332685346,1
359,127,5,0.0863092772640208,1
359,128,5,0.067326182461818,1
359,129,5,0.0558053313525539,1
359,130,5,0.0503410332452476,1
360,122,5,0.0905076644751073,1
360,123,5,0.0905419104672964,1
360,124,5,0.0932973350600723,1
360,125,5,0.0930664205419346,1
360,126,5,0.0870150910173677,1
360,127,5,0.0714291204032248,1
360,128,5,0.059159102979361,1
360,129,5,0.0535098028793096,1
360,130,5,0.0506308672076993,1
361,122,5,0.0892681988713607,1
361,123,5,0.0876155320445381,1
361,124,5,0.0888097064175597,1
361,125,5,0.0847467269276472,1
361,126,5,0.0751816596575424,1
361,127,5,0.0631525089719552,1
361,128,5,0.0559803638669748,1
361,129,5,0.0529332241695591,1
361,130,5,0.0519481039467399,1
361,131,5,0.0491606769258524,1
362,121,5,0.081029417382076,1
362,122,5,0.0860403257056757,1
362,123,5,0.086760354450909,1
362,124,5,0.0859005113945442,1
362,125,5,0.0790015921251131,1
362,126,5,0.0706904700761477,1
362,127,5,0.0631688122042522,1
362,128,5,0.0576902875996027,1
362,129,5,0.0545980407587711,1
362,130,5,0.0562077519626008,1
362,131,5,0.056718231822989,1
362,132,5,0.0562466173956984,1
362,133,5,0.0493880362578364,1
363,120,5,0.0706742186184063,1
363,121,5,0.0758132344508353,1
363,122,5,0.0835836575571062,1
363,123,5,0.0861129366435913,1
363,124,5,0.0834609461075199,1
363,125,5,0.0755110838968706,1
363,126,5,0.071089393027325,1
363,127,5,0.0674994949104461,1
363,128,5,0.0637629885101906,1
363,129,5,0.0635239338813613,1
363,130,5,0.0704471986973982,1
363,131,5,0.0698823670590488,1
363,132,5,0.067428713340163,1
363,133,5,0.0557730700516641,1
364,121,5,0.0787755731788473,1
364,122,5,0.0840163260131015,1
364,123,5,0.0842197597476531,1
364,124,5,0.079838228675096,1
364,125,5,0.0732905940129285,1
364,126,5,0.0732894664781613,1
364,127,5,0.0731662948103026,1
364,128,5,0.0722082871964515,1
364,129,5,0.080121004039796,1
364,130,5,0.0941677171148732,1
364,131,5,0.0841370930404872,1
364,132,5,0.0734409760861381,1
364,133,5,0.0565857982623999,1
365,122,5,0.0856744694373648,1
365,123,5,0.0818717606386357,1
365,124,5,0.0773057855879887,1
365,125,5,0.0727040228139402,1
365,126,5,0.0747646501282628,1
365,127,5,0.0771079147418037,1
365,128,5,0.0789999180811475,1
365,129,5,0.0906805972436607,1
365,130,5,0.102227582998064,1
365,131,5,0.0847135106738424,1
365,132,5,0.0700219397555873,1
365,133,5,0.0529954111636067,1
366,125,5,0.0747106377612774,1
366,126,5,0.0764726294386902,1
366,127,5,0.0801614399677479,1
366,128,5,0.0822378412633544,1
366,129,5,0.0869493891062653,1
366,130,5,0.0848084939725213,1
366,131,5,0.0700665751752741,1
366,132,5,0.0606204915867498,1
366,133,5,0.0495757592911166,1
367,127,5,0.0831292035186448,1
367,128,5,0.0861016497904626,1
367,129,5,0.0867911718169694,1
367,130,5,0.0788889882193327,1
367,131,5,0.0668247401377525,1
367,132,5,0.0593324384389028,1
367,133,5,0.0519265829897804,1
368,128,5,0.0905238871692066,1
368,129,5,0.0902682819407589,1
368,130,5,0.0845768315996911,1
368,131,5,0.0744693798374693,1
368,132,5,0.065140450562893,1
368,133,5,0.0579381208919766,1
369,128,5,0.0960648921570522,1
369,129,5,0.0940746609802097,1
369,130,5,0.0933560416534354,1
369,131,5,0.0876321976987245,1
369,132,5,0.0747611812330352,1
370,128,5,0.0986840403666651,1
370,129,5,0.0950667707680399,1
370,130,5,0.096585318484851,1
370,131,5,0.0945006390130711,1
371,128,5,0.0973805641539669,1
371,129,5,0.0950370464203763,1
371,130,5,0.0956483255878598,1
351,123,6,0.0468602989025635,1
352,121,6,0.0587217057806176,1
352,122,6,0.0521988423669578,1
352,123,6,0.0468413321570154,1
353,120,6,0.07250775697898,1
353,121,6,0.0654820073064253,1
353,122,6,0.0581886176976016,1
353,123,6,0.0514523683292512,1
354,120,6,0.0814282828059692,1
354,121,6,0.073945329290776,1
354,122,6,0.0675871147167679,1
354,123,6,0.0619927761838885,1
354,124,6,0.0572634351520239,1
354,125,6,0.0535380947976006,1
354,126,6,0.051227810576,1
354,127,6,0.0479877301206416,1
355,119,6,0.0819359725930814,1
355,120,6,0.0807545922880304,1
355,121,6,0.0769099230883223,1
355,122,6,0.072971162262838,1
355,123,6,0.0688927482026175,1
355,124,6,0.0654960209528175,1
355,125,6,0.0607875853359731,1
355,126,6,0.0558414239705608,1
355,127,6,0.0523023109400326,1
355,128,6,0.0515781114667064,1
355,129,6,0.0472369961875518,1
356,118,6,0.0828779703637841,1
356,119,6,0.0787038654192911,1
356,120,6,0.0813711582129172,1
356,121,6,0.0795480783125821,1
356,122,6,0.0751674561711128,1
356,123,6,0.0723079992378785,1
356,124,6,0.0695426339304205,1
356,125,6,0.0671251763786529,1
356,126,6,0.0640863608792378,1
356,127,6,0.0629490694846752,1
356,128,6,0.062330518868489,1
356,129,6,0.0551376294248836,1
357,118,6,0.0820260258035181,1
357,119,6,0.0787705740578642,1
357,120,6,0.0856553531208782,1
357,121,6,0.0861801457695356,1
357,122,6,0.0845280369573681,1
357,123,6,0.0858331929667603,1
357,124,6,0.0801165284170977,1
357,125,6,0.0779670847289452,1
357,126,6,0.0794652390235641,1
357,127,6,0.0779490786890406,1
357,128,6,0.0717811125960821,1
357,129,6,0.0590314154197053,1
358,118,6,0.0825349236635952,1
358,119,6,0.0799497165515661,1
358,120,6,0.0866385576851389,1
358,121,6,0.089777113989623,1
358,122,6,0.0914283426343446,1
358,123,6,0.0960663418446101,1
358,124,6,0.0907904801089061,1
358,125,6,0.090932451693189,1
358,126,6,0.0947196453834124,1
358,127,6,0.0865110657182488,1
358,128,6,0.0730664447033939,1
358,129,6,0.0587578444204517,1
358,130,6,0.0486890452403766,1
359,119,6,0.082176965891383,1
359,120,6,0.0892908358576306,1
359,121,6,0.094422724059567,1
359,122,6,0.0950454684147597,1
359,123,6,0.0969065853553023,1
359,124,6,0.0962884144191907,1
359,125,6,0.0977916196093483,1
359,126,6,0.0980423350186526,1
359,127,6,0.0843527225592554,1
359,128,6,0.0704118366758986,1
359,129,6,0.0574803762928682,1
359,130,6,0.0501861007638703,1
360,122,6,0.0949616971837403,1
360,123,6,0.0930976693626253,1
360,124,6,0.0934209784516601,1
360,125,6,0.0911084276550682,1
360,126,6,0.0855031531854928,1
360,127,6,0.075395160666801,1
360,128,6,0.066892593569278,1
360,129,6,0.0561805530627066,1
360,130,6,0.0505201329386501,1
360,131,6,0.0467886429175629,1
361,120,6,0.0863514217523087,1
361,121,6,0.0920749608124141,1
361,122,6,0.0928799285925329,1
361,123,6,0.0908028139586043,1
361,124,6,0.0898436960681712,1
361,125,6,0.0843247988155823,1
361,126,6,0.076709141361565,1
361,127,6,0.069021983246214,1
361,128,6,0.062612299011175,1
361,129,6,0.0547492454721425,1
361,130,6,0.0519183853518047,1
361,131,6,0.0508923977464032,1
361,132,6,0.0485794730224651,1
362,120,6,0.0776346115435629,1
362,121,6,0.0837237882682999,1
362,122,6,0.0887930465161017,1
362,123,6,0.0894925840427598,1
362,124,6,0.0881654238472223,1
362,125,6,0.0812201548450399,1
362,126,6,0.0748668300901752,1
362,127,6,0.0680791168135223,1
362,128,6,0.0617720497477544,1
362,129,6,0.0564744196877695,1
362,130,6,0.0572190355942016,1
362,131,6,0.0605136691730154,1
362,132,6,0.0626699471025118,1
362,133,6,0.0517316805514519,1
363,119,6,0.0717765909515565,1
363,120,6,0.0724569373762588,1
363,121,6,0.079522490176641,1
363,122,6,0.0887539049520406,1
363,123,6,0.0914809628410563,1
363,124,6,0.0889733312715555,1
363,125,6,0.0811834179214518,1
363,126,6,0.0780172485206284,1
363,127,6,0.0716762000881778,1
363,128,6,0.065720739782464,1
363,129,6,0.0651468533496067,1
363,130,6,0.0738324665122174,1
363,131,6,0.0743723025456513,1
363,132,6,0.0760144073631242,1
363,133,6,0.0602824382548155,1
364,120,6,0.079281433598327,1
364,121,6,0.0834769559506683,1
364,122,6,0.0921127504853002,1
364,123,6,0.0939836930859568,1
364,124,6,0.0893236436677187,1
364,125,6,0.081726745861027,1
364,126,6,0.0830777971376264,1
364,127,6,0.0784176326648203,1
364,128,6,0.0737584461558428,1
364,129,6,0.083332303594949,1
364,130,6,0.103973006817673,1
364,131,6,0.0882346176644659,1
364,132,6,0.0764585927813844,1
364,133,6,0.0582869663423969,1
365,121,6,0.0917141381814567,1
365,122,6,0.0930673524839361,1
365,123,6,0.0922721988584746,1
365,124,6,0.0875463094636524,1
365,125,6,0.0811238944406553,1
365,126,6,0.0837127200188505,1
365,127,6,0.0817354152227318,1
365,128,6,0.0801487149325182,1
365,129,6,0.0933332320853134,1
365,130,6,0.111966722076947,1
365,131,6,0.0868827437477047,1
365,132,6,0.0685460600253488,1
365,133,6,0.0533308412513887,1
366,122,6,0.092766450272035,1
366,123,6,0.0879890797107252,1
366,124,6,0.085880802547032,1
366,125,6,0.0821416153753402,1
366,126,6,0.0827593951259203,1
366,127,6,0.0824361608223548,1
366,128,6,0.0826147830392999,1
366,129,6,0.0858894661560085,1
366,130,6,0.0851483364029892,1
366,131,6,0.0685457723889286,1
366,132,6,0.0593323751588904,1
366,133,6,0.0514815864368153,1
367,127,6,0.0818989825494436,1
367,128,6,0.0855456888593122,1
367,129,6,0.0862243209709501,1
367,130,6,0.0771183616965855,1
367,131,6,0.0648507201495525,1
367,132,6,0.0588378073452677,1
367,133,6,0.0542852188936169,1
367,134,6,0.0490576858292351,1
367,135,6,0.0477284000005523,1
368,127,6,0.081932492192397,1
368,128,6,0.0884568110463431,1
368,129,6,0.0893032675037117,1
368,130,6,0.0835429339927341,1
368,131,6,0.0737789776435168,1
368,132,6,0.0663074087778352,1
368,133,6,0.0606534834841469,1
368,134,6,0.0569075080929383,1
369,127,6,0.0847281916367295,1
369,128,6,0.0924574769821831,1
369,129,6,0.0910420124056437,1
369,130,6,0.090493023781319,1
369,131,6,0.0866145112804101,1
369,132,6,0.07703911786282,1
369,133,6,0.0683361429658859,1
370,127,6,0.0888971191256589,1
370,128,6,0.0934732707528527,1
370,129,6,0.0908300818912394,1
370,130,6,0.0927660705919604,1
370,131,6,0.0939278571040673,1
370,132,6,0.0835030963485362,1
371,127,6,0.0898866747020777,1
371,128,6,0.0900179462115292,1
371,129,6,0.0897049575172513,1
371,130,6,0.0914149790462621,1
371,131,6,0.0947862447201459,1
372,128,6,0.0896692445793191,1
372,129,6,0.0931897935552874,1
352,121,7,0.0566356859231196,1
352,122,7,0.0516525747831682,1
353,120,7,0.0759188027697777,1
353,121,7,0.0641232818901349,1
353,122,7,0.0578405948873432,1
353,123,7,0.0529444189790334,1
353,124,7,0.0497448549898246,1
353,125,7,0.0477589268538282,1
354,119,7,0.0883863688870357,1
354,120,7,0.0891010936166805,1
354,121,7,0.0745974700881134,1
354,122,7,0.0677524193674576,1
354,123,7,0.0633741328337204,1
354,124,7,0.0592855594551384,1
354,125,7,0.0556413325712119,1
354,126,7,0.0522736738580374,1
354,127,7,0.0489157315031373,1
355,118,7,0.084456145110503,1
355,119,7,0.0826142883046571,1
355,120,7,0.0851342134547573,1
355,121,7,0.0776208970390477,1
355,122,7,0.0737251321056551,1
355,123,7,0.0692546408410581,1
355,124,7,0.0659004665232626,1
355,125,7,0.0625785189899866,1
355,126,7,0.0589855546688684,1
355,127,7,0.0578652971031101,1
355,128,7,0.058851936046228,1
355,129,7,0.0519585796651636,1
356,117,7,0.0893036529365147,1
356,118,7,0.087467180684455,1
356,119,7,0.0806209794181184,1
356,120,7,0.0860829131540507,1
356,121,7,0.0810684381388405,1
356,122,7,0.0763846069413802,1
356,123,7,0.0712974979773407,1
356,124,7,0.0695802970432817,1
356,125,7,0.0688723605331537,1
356,126,7,0.0680310700258919,1
356,127,7,0.0696473565982874,1
356,128,7,0.0720414120509075,1
356,129,7,0.0612800418982715,1
356,130,7,0.0473053673646337,1
357,117,7,0.0904365722574903,1
357,118,7,0.0846809214674336,1
357,119,7,0.0811821005466473,1
357,120,7,0.0908863780914012,1
357,121,7,0.0871654788433058,1
357,122,7,0.0840064600838886,1
357,123,7,0.0820479436987374,1
357,124,7,0.0804649941874432,1
357,125,7,0.0806783628839486,1
357,126,7,0.0812971090929006,1
357,127,7,0.0790973577948549,1
357,128,7,0.0760168752836095,1
357,129,7,0.0624118221790231,1
357,130,7,0.0498636200677257,1
358,117,7,0.0880870831918162,1
358,118,7,0.0828236818658353,1
358,119,7,0.0807988652858278,1
358,120,7,0.0880411936773373,1
358,121,7,0.0878393189321831,1
358,122,7,0.0883019475977066,1
358,123,7,0.0897584866550508,1
358,124,7,0.0897832118817313,1
358,125,7,0.0917203108590342,1
358,126,7,0.0916475043283528,1
358,127,7,0.0817000474485039,1
358,128,7,0.0728874370536458,1
358,129,7,0.0600025104906755,1
358,130,7,0.0506020805547655,1
359,118,7,0.084528761801147,1
359,119,7,0.0849459841813775,1
359,120,7,0.0911033710068011,1
359,121,7,0.0936152135734936,1
359,122,7,0.0936690188422565,1
359,123,7,0.092628137423017,1
359,124,7,0.0923163740598891,1
359,125,7,0.0924069507686105,1
359,126,7,0.0898323862041289,1
359,127,7,0.0786482307828957,1
359,128,7,0.0714108957596409,1
359,129,7,0.0589979345403938,1
359,130,7,0.0510458057547534,1
360,119,7,0.088751787947988,1
360,120,7,0.0946616866447419,1
360,121,7,0.0970268864116873,1
360,122,7,0.0973685294461457,1
360,123,7,0.0947024619836696,1
360,124,7,0.0926651562302969,1
360,125,7,0.0868699381742773,1
360,126,7,0.0810229225517078,1
360,127,7,0.0751035951330997,1
360,128,7,0.0707468640726924,1
360,129,7,0.0582087925161145,1
360,130,7,0.0518279121921945,1
360,131,7,0.0482425529780264,1
361,119,7,0.0855880289403658,1
361,120,7,0.0899790807784316,1
361,121,7,0.0934098526749267,1
361,122,7,0.0961060816924251,1
361,123,7,0.0954098404791424,1
361,124,7,0.094974991739082,1
361,125,7,0.0868737062113819,1
361,126,7,0.0787269856347469,1
361,127,7,0.0723375567564184,1
361,128,7,0.0665175271827923,1
361,129,7,0.056628828670862,1
361,130,7,0.0546039430581136,1
361,131,7,0.0567926491176235,1
361,132,7,0.0562054796348812,1
362,119,7,0.0773706245898305,1
362,120,7,0.0795766291036513,1
362,121,7,0.0850638921027465,1
362,122,7,0.0907453442018481,1
362,123,7,0.0935765840022606,1
362,124,7,0.0946527353993452,1
362,125,7,0.089067440155517,1
362,126,7,0.0817542726664402,1
362,127,7,0.0727648694222696,1
362,128,7,0.0651987257016258,1
362,129,7,0.0589338951678002,1
362,130,7,0.0601157471965804,1
362,131,7,0.069876930730707,1
362,132,7,0.0783720595504036,1
362,133,7,0.06107783349487,1
363,119,7,0.075416474525538,1
363,120,7,0.0773813764392176,1
363,121,7,0.084930670418366,1
363,122,7,0.0934076436272195,1
363,123,7,0.0971866972067512,1
363,124,7,0.0951789777355604,1
363,125,7,0.0920591695729451,1
363,126,7,0.0886713993212701,1
363,127,7,0.0776115776190332,1
363,128,7,0.0695981247486058,1
363,129,7,0.0688263847277487,1
363,130,7,0.0757873126566468,1
363,131,7,0.0809222037828101,1
363,132,7,0.0899039731563886,1
363,133,7,0.0700301891681187,1
363,134,7,0.0476748967500306,1
364,119,7,0.0806267666628929,1
364,120,7,0.0832151377755442,1
364,121,7,0.089889027567995,1
364,122,7,0.0996208951981746,1
364,123,7,0.103687222776018,1
364,124,7,0.0958555676286149,1
364,125,7,0.0923808506398415,1
364,126,7,0.0930344813938355,1
364,127,7,0.0833799131752207,1
364,128,7,0.076598637201652,1
364,129,7,0.0862176823223719,1
364,130,7,0.104154747013414,1
364,131,7,0.0875103549111273,1
364,132,7,0.0774204259596241,1
364,133,7,0.0613237511286853,1
364,134,7,0.0470711766676699,1
365,120,7,0.0980572575961327,1
365,121,7,0.098816755810946,1
365,122,7,0.102027353533234,1
365,123,7,0.102360804682445,1
365,124,7,0.0927411325143289,1
365,125,7,0.0886114846549421,1
365,126,7,0.091176269581137,1
365,127,7,0.0857526950382027,1
365,128,7,0.0827439950719827,1
365,129,7,0.0934512550612504,1
365,130,7,0.109704990883076,1
365,131,7,0.0832290708837387,1
365,132,7,0.06462306742842,1
365,133,7,0.0542029146083404,1
366,121,7,0.10959929025138,1
366,122,7,0.101668947048206,1
366,123,7,0.0964556980084515,1
366,124,7,0.0902841364602404,1
366,125,7,0.0872868384017172,1
366,126,7,0.0879630716256106,1
366,127,7,0.0852082280584035,1
366,128,7,0.0852919302566821,1
366,129,7,0.0848319018243973,1
366,130,7,0.0825677027100413,1
366,131,7,0.066096392947247,1
366,132,7,0.0582710082738041,1
366,133,7,0.0551722090753202,1
366,134,7,0.0505330823302876,1
366,135,7,0.0469393845362979,1
367,122,7,0.105857911290167,1
367,123,7,0.0956892562504545,1
367,124,7,0.0900399446449462,1
367,125,7,0.0839858423052885,1
367,126,7,0.0813564945082154,1
367,127,7,0.0815677404479396,1
367,128,7,0.0864738283072896,1
367,129,7,0.0850632420444368,1
367,130,7,0.0755890908940292,1
367,131,7,0.0639152517255884,1
367,132,7,0.0604877934006541,1
367,133,7,0.0611356944371577,1
367,134,7,0.0626966915368621,1
367,135,7,0.0629827574622092,1
368,128,7,0.0867908554169071,1
368,129,7,0.086926959218218,1
368,130,7,0.0806784664330599,1
368,131,7,0.072887425548189,1
368,132,7,0.0709173289207605,1
368,133,7,0.0724348468991873,1
368,134,7,0.0807518309783964,1
369,128,7,0.0887616826408429,1
369,129,7,0.0871889269642806,1
369,130,7,0.0851008821463844,1
369,131,7,0.0852591109411372,1
369,132,7,0.0847101223168124,1
369,133,7,0.0817017732670251,1
369,134,7,0.0888245657150273,1
370,127,7,0.0858928430075816,1
370,128,7,0.0894625202841204,1
370,129,7,0.0875671803623022,1
370,130,7,0.088201855876205,1
370,131,7,0.0950804219925426,1
370,132,7,0.093677141694763,1
370,133,7,0.083089693779966,1
371,127,7,0.0854053510498959,1
371,128,7,0.0860543623629815,1
371,129,7,0.0870743383672008,1
371,130,7,0.0892567049200095,1
371,131,7,0.0991719982953515,1
371,132,7,0.0975734876537244,1
372,128,7,0.0857799111962822,1
372,129,7,0.0895563415316616,1
372,130,7,0.0909648913286594,1
352,122,8,0.0508975406855964,1
352,123,8,0.0508302107523556,1
352,124,8,0.0508371370373541,1
353,121,8,0.0615497183003955,1
353,122,8,0.0570505381792477,1
353,123,8,0.0569579595210416,1
353,124,8,0.0562149371203775,1
353,125,8,0.0507498048674525,1
354,120,8,0.0936678050165633,1
354,121,8,0.0766858025424298,1
354,122,8,0.0683867036958289,1
354,123,8,0.0657706964759246,1
354,124,8,0.0621109084616652,1
354,125,8,0.0573361496390508,1
354,126,8,0.0526042083739476,1
354,127,8,0.048461306228318,1
355,118,8,0.0830163177291726,1
355,119,8,0.0808188617697602,1
355,120,8,0.0883393173214192,1
355,121,8,0.0823943384868576,1
355,122,8,0.077991643126502,1
355,123,8,0.0731148078910866,1
355,124,8,0.0680087954615115,1
355,125,8,0.0645607768852611,1
355,126,8,0.062360634401684,1
355,127,8,0.0633544987716774,1
355,128,8,0.0641045797700934,1
355,129,8,0.0531191753624909,1
356,117,8,0.0914490639620559,1
356,118,8,0.0914945968073738,1
356,119,8,0.0845374484210371,1
356,120,8,0.0909677849510466,1
356,121,8,0.0904233467348894,1
356,122,8,0.0867345477112885,1
356,123,8,0.0794016426110576,1
356,124,8,0.0747682398307869,1
356,125,8,0.0730123230345688,1
356,126,8,0.073803599321086,1
356,127,8,0.078393822121956,1
356,128,8,0.0804921470655102,1
356,129,8,0.0631138103679813,1
357,117,8,0.0885438038052688,1
357,118,8,0.0870180191561254,1
357,119,8,0.0868690465013747,1
357,120,8,0.097549717379959,1
357,121,8,0.0993594451976683,1
357,122,8,0.0975746842212324,1
357,123,8,0.0904676427436004,1
357,124,8,0.0880156227995814,1
357,125,8,0.0870577302402984,1
357,126,8,0.0853354899161574,1
357,127,8,0.0832553896161872,1
357,128,8,0.0799407250370706,1
357,129,8,0.0633690071527124,1
357,130,8,0.0496958014747234,1
358,117,8,0.0874483865207591,1
358,118,8,0.083123680899377,1
358,119,8,0.0846910002475974,1
358,120,8,0.0943640174662039,1
358,121,8,0.099931669092017,1
358,122,8,0.101634729819659,1
358,123,8,0.0970111009249467,1
358,124,8,0.0972167724708475,1
358,125,8,0.0963999598229448,1
358,126,8,0.0903690870005826,1
358,127,8,0.0807180279462944,1
358,128,8,0.0739043698645394,1
358,129,8,0.061522174236797,1
358,130,8,0.0512338451880958,1
359,118,8,0.0862723389949385,1
359,119,8,0.0876181265250483,1
359,120,8,0.0938386783083481,1
359,121,8,0.0987971390070883,1
359,122,8,0.10089082149882,1
359,123,8,0.098484443701959,1
359,124,8,0.0965407003233494,1
359,125,8,0.0927733765570335,1
359,126,8,0.0876089911923427,1
359,127,8,0.0784692403913328,1
359,128,8,0.0729295470255633,1
359,129,8,0.0612548449478619,1
359,130,8,0.051406432792945,1
360,119,8,0.0913548400235264,1
360,120,8,0.0943541918060898,1
360,121,8,0.0966161531090966,1
360,122,8,0.100368910967093,1
360,123,8,0.101867220585379,1
360,124,8,0.0993133428322385,1
360,125,8,0.0895069486055847,1
360,126,8,0.0840965132943252,1
360,127,8,0.0784563370215226,1
360,128,8,0.0741346688407378,1
360,129,8,0.0613113079771474,1
360,130,8,0.0530491646578139,1
360,131,8,0.0468842561400021,1
361,118,8,0.0840955755995954,1
361,119,8,0.0867518864346982,1
361,120,8,0.088709614696058,1
361,121,8,0.0917690422213447,1
361,122,8,0.0971507196433124,1
361,123,8,0.101995425890591,1
361,124,8,0.104416047442981,1
361,125,8,0.0933602296397135,1
361,126,8,0.0842460554691879,1
361,127,8,0.0774048878402049,1
361,128,8,0.0716436281399542,1
361,129,8,0.0607090260768877,1
361,130,8,0.0578699453076605,1
361,131,8,0.0594076898791559,1
361,132,8,0.059323044233419,1
362,118,8,0.0790044167147595,1
362,119,8,0.0798967684393354,1
362,120,8,0.0816350473702668,1
362,121,8,0.0870572585165692,1
362,122,8,0.0932741860809745,1
362,123,8,0.0992928861300338,1
362,124,8,0.104000562386729,1
362,125,8,0.0981944601685688,1
362,126,8,0.0890307665119413,1
362,127,8,0.0785297303305011,1
362,128,8,0.0715333713473626,1
362,129,8,0.0643328537858936,1
362,130,8,0.0657184386911024,1
362,131,8,0.0779850907688499,1
362,132,8,0.0925413229986718,1
362,133,8,0.0688378038936307,1
363,118,8,0.0783301221603382,1
363,119,8,0.0800900486082539,1
363,120,8,0.0835241398290381,1
363,121,8,0.0905214537650917,1
363,122,8,0.0963955014584317,1
363,123,8,0.100403807017592,1
363,124,8,0.100372753789667,1
363,125,8,0.100574007240154,1
363,126,8,0.0958122035619053,1
363,127,8,0.0827135746441822,1
363,128,8,0.0755684155881451,1
363,129,8,0.0747326131837808,1
363,130,8,0.0804782829900565,1
363,131,8,0.0885122615954295,1
363,132,8,0.10483554790366,1
363,133,8,0.0808162845474352,1
363,134,8,0.050396213416099,1
364,118,8,0.0821743771636012,1
364,119,8,0.0858653737294524,1
364,120,8,0.0908558426090326,1
364,121,8,0.0970177740898954,1
364,122,8,0.103465098426882,1
364,123,8,0.107091100667224,1
364,124,8,0.10002526598315,1
364,125,8,0.100503616855402,1
364,126,8,0.0994183646419824,1
364,127,8,0.0869293523532341,1
364,128,8,0.0811167380465207,1
364,129,8,0.0885423023431553,1
364,130,8,0.0991452135919024,1
364,131,8,0.0854512463171033,1
364,132,8,0.0790316846473946,1
364,133,8,0.0655199925720771,1
364,134,8,0.0496482609271926,1
365,119,8,0.0960222414286648,1
365,120,8,0.10054929351893,1
365,121,8,0.102488906438546,1
365,122,8,0.105526611661379,1
365,123,8,0.106697027266092,1
365,124,8,0.0965753892756256,1
365,125,8,0.0947354538810667,1
365,126,8,0.0959252676859581,1
365,127,8,0.08821189438727,1
365,128,8,0.0853084233290165,1
365,129,8,0.0913557489546142,1
365,130,8,0.0987215136394889,1
365,131,8,0.0771900752088701,1
365,132,8,0.0617887441655829,1
365,133,8,0.0559004987385417,1
365,134,8,0.0487606034289943,1
366,120,8,0.111412872397121,1
366,121,8,0.109858979916995,1
366,122,8,0.105422613837291,1
366,123,8,0.102797839459299,1
366,124,8,0.09457107541965,1
366,125,8,0.0917840338315656,1
366,126,8,0.0924003581418595,1
366,127,8,0.0880658728821906,1
366,128,8,0.0870110813656701,1
366,129,8,0.0835604510507243,1
366,130,8,0.0781756786608753,1
366,131,8,0.0642569062655036,1
366,132,8,0.0573740025919493,1
366,133,8,0.0577210704492927,1
366,134,8,0.0552371286153597,1
366,135,8,0.0512736310577381,1
367,122,8,0.108816746606581,1
367,123,8,0.101988890791124,1
367,124,8,0.0930109872510334,1
367,125,8,0.0857503536777423,1
367,126,8,0.0840404472032996,1
367,128,8,0.087172629484712,1
367,129,8,0.0834221842235335,1
367,130,8,0.0741104556068852,1
367,131,8,0.0637567180362302,1
367,132,8,0.0618089477477378,1
367,133,8,0.0674468747037345,1
367,134,8,0.0779883238022129,1
368,128,8,0.0854067949847254,1
368,129,8,0.0851399661831613,1
368,130,8,0.0788451754398076,1
368,131,8,0.0731155902621495,1
368,132,8,0.0766415468028176,1
368,133,8,0.0888251985151518,1
368,134,8,0.113796722509552,1
369,128,8,0.0860607939133372,1
369,129,8,0.0860990898263228,1
369,130,8,0.0829549878916573,1
369,131,8,0.08541341062239,1
369,132,8,0.0926468855648857,1
369,133,8,0.0985484945800094,1
370,128,8,0.0866174221609825,1
370,129,8,0.086889255836258,1
370,130,8,0.0862293085864764,1
370,131,8,0.0967925777837913,1
370,132,8,0.103465040899598,1
370,133,8,0.0942885244113578,1
371,127,8,0.086583854990745,1
371,128,8,0.0862138797688968,1
371,129,8,0.0875454235434782,1
371,130,8,0.0881010450636528,1
371,131,8,0.101157771107681,1
371,132,8,0.105527463065183,1
372,128,8,0.0860240224733787,1
372,129,8,0.0871039073911975,1
372,130,8,0.087955731144167,1
372,131,8,0.0963854284309962,1
352,123,9,0.0509761574719658,1
352,124,9,0.0529384073778512,1
353,122,9,0.0551650066593584,1
353,123,9,0.0568830359863076,1
353,124,9,0.0577346698992398,1
353,125,9,0.051228196008803,1
354,118,9,0.0817752701251149,1
354,120,9,0.0942628902535895,1
354,121,9,0.0799491125150837,1
354,122,9,0.0694792906379638,1
354,123,9,0.0659608529133197,1
354,124,9,0.0621044193840255,1
354,125,9,0.0566600199642687,1
354,126,9,0.0521176311000781,1
354,127,9,0.0470094585209873,1
355,117,9,0.0825788917667871,1
355,118,9,0.0817504758656936,1
355,119,9,0.0807347051059376,1
355,120,9,0.0924384872257214,1
355,121,9,0.091756018044238,1
355,122,9,0.0865320631769236,1
355,123,9,0.0796005144319848,1
355,124,9,0.0718847652564658,1
355,125,9,0.0658247261010952,1
355,126,9,0.0657021066951634,1
355,127,9,0.0670395700272725,1
355,128,9,0.0652118821914858,1
355,129,9,0.0503735476661871,1
356,116,9,0.085022265360015,1
356,117,9,0.0889356739114227,1
356,118,9,0.0949006147135463,1
356,119,9,0.0921632594406875,1
356,120,9,0.0952054115225769,1
356,121,9,0.100974822838976,1
356,122,9,0.100217959373772,1
356,123,9,0.0905774910924753,1
356,124,9,0.0819514186688463,1
356,125,9,0.0747622167241479,1
356,126,9,0.0776384543661368,1
356,127,9,0.0842060970176935,1
356,128,9,0.0843566056509281,1
356,129,9,0.0614717573250641,1
357,116,9,0.0863055667542002,1
357,117,9,0.0836752237351131,1
357,118,9,0.0886691557571925,1
357,119,9,0.0928742851659685,1
357,120,9,0.0991580536817002,1
357,121,9,0.109228480883914,1
357,122,9,0.111973797932884,1
357,123,9,0.101373245302782,1
357,124,9,0.0959763979360131,1
357,125,9,0.0896248105051264,1
357,126,9,0.0867319187144079,1
357,127,9,0.0852316819321068,1
357,128,9,0.0812377351830426,1
357,129,9,0.0627311446272738,1
357,130,9,0.0489280883637492,1
358,117,9,0.0851315844578767,1
358,118,9,0.0814956817719508,1
358,119,9,0.0849598712677449,1
358,120,9,0.095181848347034,1
358,121,9,0.107793969023629,1
358,122,9,0.112127602879494,1
358,123,9,0.104065487679497,1
358,124,9,0.102005217034335,1
358,125,9,0.0960644261860515,1
358,126,9,0.0875028360951032,1
358,127,9,0.0784583102073651,1
358,128,9,0.0727005941878114,1
358,129,9,0.0614573697513257,1
358,130,9,0.0510986790815148,1
359,118,9,0.0874730484674271,1
359,119,9,0.0866656875522923,1
359,120,9,0.0923100748222867,1
359,121,9,0.0996750398779133,1
359,122,9,0.10527414742264,1
359,123,9,0.104408557390599,1
359,124,9,0.100920448050101,1
359,125,9,0.0917836426460342,1
359,126,9,0.0858781390337809,1
359,127,9,0.075695292013096,1
359,128,9,0.0694566996735212,1
359,129,9,0.0601367619134403,1
359,130,9,0.0506738515943342,1
360,119,9,0.0911833109207035,1
360,120,9,0.090542986227508,1
360,121,9,0.0927652191881566,1
360,122,9,0.100823871245654,1
360,123,9,0.10751875849678,1
360,124,9,0.105703761179852,1
360,125,9,0.090032822767182,1
360,126,9,0.0849885716297526,1
360,127,9,0.0756829581633977,1
360,128,9,0.0702100194580286,1
360,129,9,0.0604275910979059,1
360,130,9,0.0527794019647638,1
361,119,9,0.0861804966859682,1
361,120,9,0.0854145899317128,1
361,121,9,0.0875113328749559,1
361,122,9,0.0957717101066694,1
361,123,9,0.105781330969652,1
361,124,9,0.113122548762427,1
361,125,9,0.0972251829597742,1
361,126,9,0.0873498077668276,1
361,127,9,0.0787410337975095,1
361,128,9,0.0734933029037012,1
361,129,9,0.0633737934227445,1
361,130,9,0.059620684648315,1
361,131,9,0.05734246038211,1
361,132,9,0.0557678753379153,1
362,119,9,0.0806417295094718,1
362,120,9,0.0812212651216219,1
362,121,9,0.0853414727536976,1
362,122,9,0.0933245454654233,1
362,123,9,0.103257298371472,1
362,124,9,0.114848965567389,1
362,125,9,0.10633856325378,1
362,126,9,0.0958106905943351,1
362,127,9,0.0844896547534565,1
362,128,9,0.0782577816006576,1
362,129,9,0.0696922739016661,1
362,130,9,0.0699074834712607,1
362,131,9,0.0764383719410442,1
362,132,9,0.0903106680436397,1
362,133,9,0.0647700841555133,1
363,118,9,0.0805853585238407,1
363,119,9,0.0832751962600822,1
363,120,9,0.0864561444201756,1
363,121,9,0.0913817685451856,1
363,122,9,0.0962645578544992,1
363,123,9,0.100181245461097,1
363,124,9,0.105154709275515,1
363,125,9,0.105304475806786,1
363,126,9,0.100437207358706,1
363,127,9,0.0865498793767908,1
363,128,9,0.0809532972798339,1
363,129,9,0.0782483586315318,1
363,130,9,0.080919511505917,1
363,131,9,0.083849899580373,1
363,132,9,0.10109343259321,1
363,133,9,0.0767593339168901,1
363,134,9,0.0477802838580282,1
364,118,9,0.0844386913325252,1
364,119,9,0.0893523900515537,1
364,120,9,0.0936790055787659,1
364,121,9,0.0973758124003052,1
364,122,9,0.100461184730694,1
364,123,9,0.101614192579256,1
364,124,9,0.099391292302113,1
364,125,9,0.10184068900198,1
364,126,9,0.100335568153264,1
364,127,9,0.086141608241957,1
364,128,9,0.0823618643350168,1
364,129,9,0.0845854837032108,1
364,130,9,0.0863956832446493,1
364,131,9,0.0737714645802211,1
364,132,9,0.0717908692234553,1
364,133,9,0.06106074789151,1
364,134,9,0.0479555436052211,1
365,119,9,0.0996143831096212,1
365,120,9,0.102971479813446,1
365,121,9,0.103181051709205,1
365,122,9,0.103379474817316,1
365,123,9,0.101348071363286,1
365,124,9,0.094029473298596,1
365,125,9,0.0932579748923319,1
365,126,9,0.094263966013801,1
365,127,9,0.0856403730161141,1
365,128,9,0.084286721506276,1
365,129,9,0.084083851539108,1
365,130,9,0.0818513499582582,1
365,131,9,0.0661468271171651,1
365,132,9,0.0564083380965925,1
365,133,9,0.0528840555998899,1
365,134,9,0.0478929309092717,1
366,120,9,0.11075558866059,1
366,121,9,0.109420460936213,1
366,122,9,0.106745465239254,1
366,123,9,0.103761835663418,1
366,124,9,0.0947653910796813,1
366,125,9,0.0904048402076137,1
366,126,9,0.0920142867859368,1
366,127,9,0.0873417942161608,1
366,128,9,0.0851905614294748,1
366,129,9,0.0785162631933073,1
366,130,9,0.0708718190863563,1
366,131,9,0.0607751824535341,1
366,132,9,0.0555778339550882,1
366,133,9,0.0565341617722453,1
366,134,9,0.056161764651739,1
367,125,9,0.0870977807354472,1
367,126,9,0.0871876958804022,1
367,127,9,0.0853033666807494,1
367,128,9,0.0841420518923715,1
367,129,9,0.0775101800281838,1
367,130,9,0.0699524065273678,1
367,131,9,0.0630559896947925,1
367,132,9,0.0625726799706565,1
367,133,9,0.0723815018486968,1
367,134,9,0.0894761312395243,1
368,128,9,0.0803634642838405,1
368,129,9,0.0781841811934564,1
368,130,9,0.0734905703577093,1
368,131,9,0.0708766743891293,1
368,132,9,0.0779062381206158,1
368,133,9,0.10191667103874,1
369,128,9,0.0820606112066831,1
369,129,9,0.0814070379799731,1
369,130,9,0.0790786384166282,1
369,131,9,0.0825475163860716,1
369,132,9,0.0932069769550302,1
369,133,9,0.106994673433716,1
370,128,9,0.0872280225065144,1
370,129,9,0.0854643913015065,1
370,130,9,0.0848074814923222,1
370,131,9,0.0954532102985804,1
370,132,9,0.103931621689535,1
371,128,9,0.090587253472577,1
371,129,9,0.0874067080034719,1
371,130,9,0.0856143591782711,1
371,131,9,0.0977351508273344,1
372,129,9,0.0855886099659346,1
372,130,9,0.0847587098609128,1
353,120,10,0.0658249907266018,1
353,122,10,0.0485256102264182,1
353,123,10,0.048978930977384,1
353,124,10,0.049426332170822,1
354,119,10,0.0782156601232833,1
354,120,10,0.0845666722813296,1
354,121,10,0.0760761744079982,1
354,122,10,0.064458286276015,1
354,123,10,0.0593313856896049,1
354,124,10,0.0547713014328436,1
354,125,10,0.0497692695691713,1
355,118,10,0.0800075774938538,1
355,119,10,0.078885133891302,1
355,120,10,0.0870913319269063,1
355,121,10,0.0912126383301072,1
355,122,10,0.0848502415225493,1
355,123,10,0.0775698933490176,1
355,124,10,0.0683071894838284,1
355,125,10,0.0610538791337956,1
355,126,10,0.0621377276814848,1
355,127,10,0.0639682803760167,1
355,128,10,0.059480064955207,1
356,117,10,0.0842742323329109,1
356,118,10,0.0918698012593413,1
356,119,10,0.0931551103557395,1
356,120,10,0.0900684666723734,1
356,121,10,0.0983460330565581,1
356,122,10,0.098239883712047,1
356,123,10,0.0905151545274893,1
356,124,10,0.0795009462087679,1
356,125,10,0.0704384775611377,1
356,126,10,0.073734670129349,1
356,127,10,0.0810104563892563,1
356,128,10,0.0775276913334456,1
356,129,10,0.0565975050647021,1
357,116,10,0.0877644126556343,1
357,117,10,0.0805681693713695,1
357,118,10,0.0874995512871845,1
357,119,10,0.0930221417914088,1
357,120,10,0.0915707744368999,1
357,121,10,0.10291155939439,1
357,122,10,0.105379456868804,1
357,123,10,0.0968030132331162,1
357,124,10,0.0890496929883905,1
357,125,10,0.0823790132183892,1
357,126,10,0.0797441888238754,1
357,127,10,0.0798344318743494,1
357,128,10,0.0749724099145743,1
357,129,10,0.0605727209300827,1
358,117,10,0.0854882881352968,1
358,118,10,0.0823322953110201,1
358,119,10,0.0835562055371622,1
358,120,10,0.0879093353895886,1
358,121,10,0.100527295085513,1
358,122,10,0.102671233412583,1
358,123,10,0.0955323908523334,1
358,124,10,0.0906897268236379,1
358,125,10,0.0852722329146268,1
358,126,10,0.0780109895521248,1
358,127,10,0.0714191221612586,1
358,128,10,0.0666688181870898,1
358,130,10,0.0500544265634305,1
359,118,10,0.0899995777497351,1
359,119,10,0.085487108825974,1
359,120,10,0.0856570386703006,1
359,121,10,0.0924757303894091,1
359,122,10,0.0971195053389922,1
359,123,10,0.098610681574057,1
359,124,10,0.0942061741042542,1
359,125,10,0.0858597360556165,1
359,126,10,0.0809775968046125,1
359,127,10,0.0716335378543336,1
359,128,10,0.0640836801078015,1
359,129,10,0.0566412430587579,1
359,130,10,0.0485900868063705,1
360,119,10,0.090954634213915,1
360,120,10,0.0864130449789726,1
360,121,10,0.088221392141865,1
360,122,10,0.0954139191635809,1
360,123,10,0.105436109738127,1
360,124,10,0.104373822416496,1
360,125,10,0.0900477683555757,1
360,126,10,0.0847962751773911,1
360,127,10,0.0742530024640086,1
360,128,10,0.0662730534838063,1
360,129,10,0.0585455514841579,1
360,130,10,0.0517988666664826,1
361,120,10,0.0855842781614464,1
361,121,10,0.0873482717883438,1
361,122,10,0.09523549829213,1
361,123,10,0.109480876089912,1
361,124,10,0.117834861718216,1
361,125,10,0.100682653268792,1
361,126,10,0.089594648950104,1
361,127,10,0.0806416489712741,1
361,128,10,0.0763484855597313,1
361,129,10,0.0680148013099653,1
361,130,10,0.0625230454299865,1
361,131,10,0.0551812868807418,1
361,132,10,0.0508255337841632,1
362,119,10,0.0879493686265522,1
362,120,10,0.0895792891652653,1
362,121,10,0.0919529972175203,1
362,122,10,0.0991146435931634,1
362,123,10,0.113824082485841,1
362,124,10,0.128230237537059,1
362,125,10,0.114195984871705,1
362,126,10,0.0999890237942051,1
362,127,10,0.0905732340734564,1
362,128,10,0.0891657025093862,1
362,129,10,0.0809014191750864,1
362,130,10,0.0764737282098154,1
362,131,10,0.0734643494216437,1
362,132,10,0.080428711729399,1
362,133,10,0.0581799483358968,1
363,118,10,0.0849896531426925,1
363,119,10,0.0922566837499689,1
363,120,10,0.0971392487028748,1
363,121,10,0.100674116219841,1
363,122,10,0.104741249179661,1
363,123,10,0.111643648849776,1
363,124,10,0.120887351453047,1
363,125,10,0.114554161247597,1
363,126,10,0.104136407315261,1
363,127,10,0.090495273098125,1
363,128,10,0.087474043689441,1
363,129,10,0.0837402468242638,1
363,130,10,0.0821446067941103,1
363,131,10,0.0786602885016306,1
363,132,10,0.0900781255033637,1
363,133,10,0.068163561113765,1
364,118,10,0.0892845941473122,1
364,119,10,0.0973824855652539,1
364,120,10,0.102901641690621,1
364,121,10,0.107313811794658,1
364,122,10,0.10916335999838,1
364,123,10,0.111161225045815,1
364,124,10,0.114708921147122,1
364,125,10,0.111253441282131,1
364,126,10,0.102234969501335,1
364,127,10,0.0864499544844129,1
364,128,10,0.081802267679515,1
364,129,10,0.0792029951465381,1
364,130,10,0.0754767286028418,1
364,131,10,0.0651740004749453,1
364,132,10,0.0651734079439196,1
364,133,10,0.0556699696532071,1
365,119,10,0.102316876848352,1
365,120,10,0.107650012748046,1
365,121,10,0.112794252057866,1
365,122,10,0.112673651859604,1
365,123,10,0.110964562272595,1
365,124,10,0.107980909685846,1
365,125,10,0.101206266608127,1
365,126,10,0.0937050194166089,1
365,127,10,0.083300922461505,1
365,128,10,0.0800584028493034,1
365,129,10,0.0750035149170549,1
365,130,10,0.0681037672547336,1
365,131,10,0.0584149587966581,1
365,132,10,0.0527004630256038,1
365,133,10,0.0487127234704876,1
366,120,10,0.113651822786511,1
366,121,10,0.11857359258349,1
366,122,10,0.118811813066701,1
366,123,10,0.115378032493251,1
366,124,10,0.105764625046367,1
366,125,10,0.0951343653267872,1
366,126,10,0.0911979228508497,1
366,127,10,0.0854314914477639,1
366,128,10,0.0807890396257137,1
366,129,10,0.0726698228435783,1
366,130,10,0.0656265848766753,1
366,131,10,0.0603243181175968,1
366,132,10,0.0556573136507183,1
366,133,10,0.054156576381046,1
366,134,10,0.0563471290663736,1
367,123,10,0.114426393149743,1
367,125,10,0.0916945328830558,1
367,128,10,0.0801994770079553,1
367,129,10,0.0721139712142675,1
367,130,10,0.0675950995037927,1
367,131,10,0.0650208801030153,1
367,132,10,0.0636571785766553,1
367,133,10,0.0736558059756581,1
368,128,10,0.0770116198210487,1
368,129,10,0.0725538938607803,1
368,130,10,0.0699664431846736,1
368,131,10,0.0701531940068536,1
368,132,10,0.076759546767841,1
368,133,10,0.106774815659571,1
369,128,10,0.0789685311949752,1
369,129,10,0.0766381181766888,1
369,130,10,0.0760347605162176,1
369,131,10,0.0788320764772316,1
369,132,10,0.0878046760017341,1
370,128,10,0.0862981227236454,1
370,129,10,0.0818682169579388,1
370,130,10,0.0831836703511742,1
370,131,10,0.0913408033662205,1
370,132,10,0.0987221579450702,1
371,126,10,0.0918308380298608,1
371,127,10,0.0969439090571876,1
371,128,10,0.0918226749082555,1
371,129,10,0.0839377667540161,1
371,130,10,0.0823514231329635,1
371,131,10,0.0915685136146372,1
372,128,10,0.0876215551511771,1
372,129,10,0.0808719767111146,1
372,130,10,0.0784860095946305,1
353,120,11,0.0558854438483084,1
354,119,11,0.0673909064090917,1
354,120,11,0.0688571215556114,1
354,121,11,0.0661016221773663,1
354,122,11,0.059085318484851,1
354,123,11,0.0535699303965885,1
354,124,11,0.0474660036762236,1
355,118,11,0.0718055616917992,1
355,119,11,0.070607193579771,1
355,120,11,0.0753690260216616,1
355,121,11,0.0838371687924149,1
355,122,11,0.0831684141154467,1
355,123,11,0.0775791092199208,1
355,124,11,0.0652908556470163,1
355,125,11,0.0567162643898748,1
355,126,11,0.0571145833045697,1
355,127,11,0.0584921028845561,1
355,128,11,0.0513111043305619,1
356,117,11,0.0742242790910873,1
356,118,11,0.0787120170354396,1
356,119,11,0.0824071900821121,1
356,120,11,0.0828503572674448,1
356,121,11,0.0950421778541126,1
356,122,11,0.100056871473002,1
356,123,11,0.0960472715499507,1
356,124,11,0.0802221945324228,1
356,125,11,0.0680791800935348,1
356,126,11,0.0684384955096503,1
356,127,11,0.0736687553672956,1
356,128,11,0.0665818484390777,1
356,129,11,0.0506506220770387,1
357,116,11,0.0875268594889184,1
357,117,11,0.0751066843482527,1
357,118,11,0.0776779238357168,1
357,119,11,0.0822673757709807,1
357,120,11,0.0851466566062952,1
357,121,11,0.0986587283616874,1
357,122,11,0.104598236351537,1
357,123,11,0.101698642632228,1
357,124,11,0.0899250166368906,1
357,125,11,0.0799828752780869,1
357,126,11,0.073801378767922,1
357,127,11,0.0717447093307414,1
357,128,11,0.0663338483175801,1
357,129,11,0.0570855377788578,1
358,116,11,0.0928232872286668,1
358,117,11,0.0836607901395474,1
358,118,11,0.0779873228274706,1
358,119,11,0.0762039482585801,1
358,120,11,0.0816178869814376,1
358,121,11,0.0956008483203414,1
358,122,11,0.10261130148807,1
358,123,11,0.103113721775964,1
358,124,11,0.095241521398769,1
358,125,11,0.087257148570424,1
358,126,11,0.0765855037227056,1
358,127,11,0.0675626426101371,1
358,128,11,0.0614492641570044,1
359,117,11,0.0918591357008802,1
359,118,11,0.0869540430635442,1
359,119,11,0.0804421961247781,1
359,120,11,0.0804132023736218,1
359,121,11,0.0884974310616039,1
359,122,11,0.0969833842794961,1
359,123,11,0.104619740050311,1
359,124,11,0.101732353620675,1
359,125,11,0.0938485557430178,1
359,126,11,0.0854133761060196,1
359,127,11,0.0727697707468698,1
359,128,11,0.0612535908530698,1
359,129,11,0.0529902106971294,1
360,118,11,0.0915292685014649,1
360,119,11,0.087244860742553,1
360,120,11,0.0846326503233954,1
360,122,11,0.0957625172466798,1
360,123,11,0.108776926220568,1
360,124,11,0.110660496060071,1
360,125,11,0.0996334706624658,1
360,126,11,0.0918565757367404,1
360,127,11,0.0782281320384632,1
360,128,11,0.0652574668113593,1
360,129,11,0.0571646205362279,1
360,130,11,0.0510546131819399,1
361,120,11,0.0888575173433256,1
361,121,11,0.0908049769844842,1
361,122,11,0.0992549756498512,1
361,123,11,0.114783637583633,1
361,124,11,0.12010065433834,1
361,125,11,0.103197688599749,1
361,126,11,0.0925272633304524,1
361,127,11,0.0833648122631602,1
361,128,11,0.0793565239621848,1
361,129,11,0.0726837559517728,1
361,130,11,0.0648482292181536,1
361,131,11,0.0531765760865063,1
362,119,11,0.0877912376281823,1
362,120,11,0.0934379087313531,1
362,121,11,0.0962930683764696,1
362,122,11,0.104823478679468,1
362,123,11,0.121625541561852,1
362,124,11,0.130845301309505,1
362,125,11,0.112566317453042,1
362,126,11,0.0989760258495399,1
362,127,11,0.0916870715943158,1
362,128,11,0.0946614047610501,1
362,129,11,0.0879557886714511,1
362,130,11,0.0777678965079558,1
362,131,11,0.067161430073055,1
362,132,11,0.0646134948883556,1
362,133,11,0.0500215612260583,1
363,118,11,0.0852249684980593,1
363,119,11,0.093319557849897,1
363,120,11,0.100110832065432,1
363,121,11,0.104801779387928,1
363,122,11,0.110259415835743,1
363,123,11,0.119111472689267,1
363,124,11,0.12571012829965,1
363,125,11,0.112593355276541,1
363,126,11,0.100720115036159,1
363,127,11,0.0884438213856068,1
363,128,11,0.0874908934309364,1
363,129,11,0.0831878640901807,1
363,130,11,0.0777180548690633,1
363,131,11,0.0707651174799184,1
363,132,11,0.0724651465196914,1
363,133,11,0.0571980553937121,1
364,119,11,0.0964695850948188,1
364,120,11,0.101830863341866,1
364,121,11,0.10967062408359,1
364,122,11,0.114984971572317,1
364,123,11,0.119106651902864,1
364,124,11,0.122975327238203,1
364,125,11,0.110285429673586,1
364,126,11,0.0977047764213611,1
364,127,11,0.0828121246344716,1
364,128,11,0.0779442463971813,1
364,129,11,0.0729408683950624,1
364,130,11,0.0678100732115228,1
364,131,11,0.0609162105903588,1
364,132,11,0.0584866147816586,1
364,133,11,0.0502716783516086,1
365,120,11,0.10860134144422,1
365,121,11,0.118602620851017,1
365,122,11,0.121670619941626,1
365,123,11,0.120181330601478,1
365,124,11,0.117287052403214,1
365,125,11,0.0998226548887606,1
365,126,11,0.087906010312571,1
365,127,11,0.0791399625014152,1
365,128,11,0.0769402112033695,1
365,129,11,0.0705627019782943,1
365,130,11,0.0637922929086807,1
365,131,11,0.0571272853288858,1
365,132,11,0.0501503533095677,1
366,121,11,0.124614716767869,1
366,122,11,0.128799412485354,1
366,123,11,0.122943802286548,1
366,124,11,0.111609051941155,1
366,125,11,0.0935392603003753,1
366,126,11,0.0864620467195181,1
366,127,11,0.0818236218073508,1
366,128,11,0.0783610430755099,1
366,129,11,0.0707971601771288,1
366,130,11,0.06589834951921,1
366,131,11,0.0627795768477073,1
366,132,11,0.0550936613216917,1
366,133,11,0.0504528892963355,1
366,134,11,0.0553109994007958,1
367,122,11,0.123012328787297,1
367,123,11,0.118003761824158,1
367,124,11,0.106241974943876,1
367,125,11,0.0919473077691287,1
367,127,11,0.0848932028982706,1
367,128,11,0.0780848891012029,1
367,129,11,0.0703167383226517,1
367,130,11,0.0681005054577285,1
367,131,11,0.0686152308316789,1
367,132,11,0.0652867251880222,1
367,133,11,0.0721684150358832,1
368,127,11,0.0841072536382556,1
368,128,11,0.0762715830864262,1
368,129,11,0.0701989224449372,1
368,130,11,0.067732733530859,1
368,131,11,0.0696105506419585,1
368,132,11,0.0742193547555735,1
368,133,11,0.0989388517185931,1
369,126,11,0.0905201824121144,1
369,127,11,0.0864073152614822,1
369,128,11,0.0792443342528494,1
369,129,11,0.0743105124898637,1
369,130,11,0.0724473648361945,1
369,131,11,0.0745173921087293,1
369,132,11,0.0808491901539062,1
370,126,11,0.0909299837727037,1
370,127,11,0.0942651970976795,1
370,128,11,0.0870979878336697,1
370,129,11,0.0793482457860114,1
370,130,11,0.0797484458428944,1
370,131,11,0.0850822720699974,1
371,125,11,0.09327517555026,1
371,126,11,0.0990195624981016,1
371,127,11,0.102714885115713,1
371,128,11,0.0933796278398919,1
371,129,11,0.0812444371116333,1
371,130,11,0.079241181757684,1
372,126,11,0.118216957938811,1
372,127,11,0.106775966205252,1
372,128,11,0.0913551219072182,1
372,129,11,0.0813760077629618,1
354,119,12,0.0617823643897828,1
354,120,12,0.0581809838270095,1
354,121,12,0.0560442249049879,1
354,122,12,0.0533514532772603,1
354,123,12,0.050089403152127,1
355,118,12,0.0686447538338483,1
355,119,12,0.0682446113042494,1
355,120,12,0.0692942886452187,1
355,121,12,0.0749461947312371,1
355,122,12,0.0778702145353498,1
355,123,12,0.0744525473541591,1
355,124,12,0.0616455184865078,1
355,125,12,0.0530253771258633,1
355,126,12,0.0508025976560163,1
355,127,12,0.0515636548602271,1
356,118,12,0.070717996881561,1
356,119,12,0.0745197334691898,1
356,120,12,0.0802844275482976,1
356,121,12,0.0917187346114515,1
356,122,12,0.0996240131769696,1
356,123,12,0.097133185327137,1
356,124,12,0.0792475097589285,1
356,125,12,0.0658801306283544,1
356,126,12,0.0626021569509987,1
356,127,12,0.0663670358077429,1
356,128,12,0.0570404306354418,1
357,117,12,0.0744938692022853,1
357,118,12,0.0759236235561802,1
357,119,12,0.0776948368572246,1
357,120,12,0.0855898007807143,1
357,121,12,0.0983090430129202,1
357,122,12,0.106035544037826,1
357,123,12,0.105817688213166,1
357,124,12,0.0914600229096656,1
357,125,12,0.0778941458855106,1
357,126,12,0.0672750464590346,1
357,127,12,0.0632410146984512,1
357,128,12,0.0578829867429524,1
358,117,12,0.084511049150391,1
358,118,12,0.0820052239376091,1
358,119,12,0.0772562718546152,1
358,120,12,0.0819973311942388,1
358,121,12,0.0945605997012263,1
358,122,12,0.105652216733352,1
358,123,12,0.111247527477332,1
358,124,12,0.101170346571972,1
358,125,12,0.0887661294998992,1
358,126,12,0.0733305927335217,1
358,127,12,0.0615373614397837,1
358,128,12,0.0552462236789665,1
359,118,12,0.0860175966757514,1
359,119,12,0.0796579439196422,1
359,120,12,0.0792995029182441,1
359,121,12,0.0875524188612175,1
359,122,12,0.0982276764223736,1
359,123,12,0.108423777729301,1
359,124,12,0.106705564315043,1
359,125,12,0.0990854887656118,1
359,126,12,0.0853169201088692,1
359,127,12,0.070368656696498,1
359,128,12,0.0575832523349174,1
359,129,12,0.0489301881096166,1
360,121,12,0.087336812353363,1
360,122,12,0.0945414143519989,1
360,123,12,0.107385203154152,1
360,124,12,0.111895192651971,1
360,125,12,0.106727539737547,1
360,126,12,0.0951559840801295,1
360,127,12,0.0806875442384814,1
360,128,12,0.0652382872148603,1
360,129,12,0.0556690894857613,1
360,130,12,0.0482825344404344,1
361,120,12,0.0892053963353739,1
361,121,12,0.0918573696132602,1
361,122,12,0.099006768430131,1
361,123,12,0.116141845254367,1
361,124,12,0.119362970469634,1
361,125,12,0.109619114153461,1
361,126,12,0.0971871574250235,1
361,127,12,0.0866528532152229,1
361,128,12,0.0812964935509613,1
361,129,12,0.075706170422508,1
361,130,12,0.0631716022775282,1
361,131,12,0.0467950859733754,1
362,119,12,0.0876168206557006,1
362,120,12,0.0940666014077157,1
362,121,12,0.0983252657070195,1
362,122,12,0.106544085228742,1
362,123,12,0.126295687018439,1
362,124,12,0.129169658085437,1
362,125,12,0.116808586476394,1
362,126,12,0.102755096687257,1
362,127,12,0.0940322576191436,1
362,128,12,0.0967621688614476,1
362,129,12,0.091746037060457,1
362,130,12,0.0740677300930285,1
362,131,12,0.0561231408332344,1
362,132,12,0.0470712945986022,1
363,118,12,0.0859747963764254,1
363,119,12,0.0942725605900366,1
363,120,12,0.103455571908645,1
363,121,12,0.108440782794464,1
363,122,12,0.111375399124297,1
363,123,12,0.122437021430524,1
363,124,12,0.126021431444506,1
363,125,12,0.117549514883919,1
363,126,12,0.104911610478618,1
363,127,12,0.0924538527632886,1
363,128,12,0.088896152667287,1
363,129,12,0.0819671523810313,1
363,130,12,0.0706178361273185,1
363,131,12,0.0597554250529941,1
363,132,12,0.0537423684304992,1
364,118,12,0.0901748403732923,1
364,119,12,0.100957150457319,1
364,120,12,0.110171226509309,1
364,121,12,0.115767595755315,1
364,122,12,0.116833300197618,1
364,123,12,0.118968091686525,1
364,124,12,0.121436725510175,1
364,125,12,0.110268263532028,1
364,126,12,0.0989672817023658,1
364,127,12,0.0875803080885202,1
364,128,12,0.0801863492817373,1
364,129,12,0.07100747992758,1
364,130,12,0.0640407244848087,1
364,131,12,0.0576156804649309,1
364,132,12,0.0519536150605509,1
365,119,12,0.103122488934052,1
365,120,12,0.112952877790879,1
365,121,12,0.123262238814625,1
365,122,12,0.125209065655659,1
365,123,12,0.119651113129935,1
365,124,12,0.115321977907682,1
365,125,12,0.0983079614999802,1
365,126,12,0.0878981750964848,1
365,127,12,0.0825234757340712,1
365,128,12,0.0781841926989132,1
365,129,12,0.0697965536094459,1
365,130,12,0.0638977576785118,1
365,131,12,0.05879256213637,1
365,132,12,0.0505498975554126,1
366,120,12,0.11447066614754,1
366,121,12,0.127596908161603,1
366,122,12,0.134478379405785,1
366,123,12,0.12463543809558,1
366,124,12,0.11376508250333,1
366,125,12,0.0978073475688049,1
366,126,12,0.0892365876287806,1
366,127,12,0.083218623928957,1
366,128,12,0.0776303545245439,1
366,129,12,0.0705344503291021,1
366,130,12,0.0680780985805948,1
366,131,12,0.0668503915537061,1
366,132,12,0.058385654398168,1
366,133,12,0.0523536425355818,1
366,134,12,0.0569358345275998,1
367,121,12,0.123419518409191,1
367,123,12,0.120527414742264,1
367,124,12,0.111435273521526,1
367,125,12,0.0995428997064728,1
367,126,12,0.0917637554639414,1
367,127,12,0.0845383631048534,1
367,128,12,0.0763636900209031,1
367,129,12,0.0697551684813073,1
367,130,12,0.0697848410544153,1
367,131,12,0.0724155004735646,1
367,132,12,0.0690064451267947,1
367,133,12,0.0713818962557562,1
368,126,12,0.0924805051539844,1
368,127,12,0.0844895396988884,1
368,128,12,0.0762377455379537,1
368,129,12,0.0695511882375573,1
368,130,12,0.067908335565392,1
368,131,12,0.0710585296394374,1
368,132,12,0.074604684009532,1
368,133,12,0.0879944239954125,1
369,125,12,0.105401064116689,1
369,126,12,0.0914900694101198,1
369,127,12,0.0866173531282417,1
369,128,12,0.0814028614991518,1
369,129,12,0.0739644456072626,1
369,130,12,0.0704568057538329,1
369,131,12,0.0724948478564413,1
369,132,12,0.07686537971229,1
370,125,12,0.095983059595505,1
370,126,12,0.0901037308974901,1
370,127,12,0.0932315238471302,1
370,128,12,0.0894273365972013,1
370,129,12,0.0798308594300105,1
370,130,12,0.0766948400787525,1
371,124,12,0.0990735921232722,1
371,125,12,0.0956527494360025,1
371,126,12,0.10102155800453,1
371,127,12,0.102068658123175,1
371,128,12,0.0938892332855627,1
371,129,12,0.082133567308303,1
372,125,12,0.115097690532666,1
372,126,12,0.130389178979807,1
372,127,12,0.111137431761136,1
372,128,12,0.0937638525699969,1
373,126,12,0.146674773411534,1
354,119,13,0.0621546522084494,1
354,120,13,0.05542268862276,1
354,121,13,0.0500283264346614,1
354,122,13,0.0484012362383231,1
354,123,13,0.0476831116461916,1
355,118,13,0.0688266378477985,1
355,119,13,0.0689910105564867,1
355,120,13,0.0671819960770994,1
355,121,13,0.0672595083396153,1
355,122,13,0.0700266800037922,1
355,123,13,0.0683313566958537,1
355,124,13,0.0577050606061443,1
355,125,13,0.0493007040879348,1
356,118,13,0.0687645256392202,1
356,119,13,0.0718885850681261,1
356,120,13,0.0785331934730004,1
356,121,13,0.0863890561015278,1
356,122,13,0.0935097142872922,1
356,123,13,0.0915543791609485,1
356,124,13,0.0749748375659608,1
356,125,13,0.0615679199330659,1
356,126,13,0.0567774561619085,1
356,127,13,0.0603349203960454,1
356,128,13,0.0525322302361564,1
357,118,13,0.0773796333625112,1
357,119,13,0.0770518716616917,1
357,120,13,0.0834097640829092,1
357,121,13,0.0941960090331642,1
357,122,13,0.102722064520761,1
357,123,13,0.103995373425708,1
357,124,13,0.0888249684060156,1
357,125,13,0.0727842216006207,1
357,126,13,0.0608720756580431,1
357,127,13,0.0568481169248951,1
357,128,13,0.0522814342886544,1
358,118,13,0.084354097461344,1
358,119,13,0.0789890971990195,1
358,120,13,0.0797437401110599,1
358,121,13,0.0908547150742654,1
358,122,13,0.104492593247125,1
358,123,13,0.112981733476553,1
358,124,13,0.100731493932943,1
358,125,13,0.084906877133687,1
358,126,13,0.0676863665399225,1
358,127,13,0.0563315794414975,1
358,128,13,0.0508656878284233,1
359,120,13,0.0759732811077638,1
359,121,13,0.0849037821658056,1
359,124,13,0.103173251009489,1
359,125,13,0.096104286841163,1
359,126,13,0.0795716069717546,1
359,127,13,0.0656507463359722,1
359,128,13,0.0545994961990573,1
360,122,13,0.0931925376067361,1
360,123,13,0.102496131865421,1
360,124,13,0.107217741230311,1
360,125,13,0.108820600934611,1
360,126,13,0.0935903502813314,1
360,127,13,0.0785001382955908,1
360,128,13,0.0625073289759867,1
360,129,13,0.052550777032531,1
361,120,13,0.0899250166368906,1
361,121,13,0.0939845905115878,1
361,122,13,0.0983911689636161,1
361,123,13,0.111883284504175,1
361,124,13,0.116373392572629,1
361,125,13,0.116837959907625,1
361,126,13,0.100187642495083,1
361,127,13,0.0863438454090006,1
361,128,13,0.077325908631946,1
361,129,13,0.0720250973131537,1
361,130,13,0.0580531064273163,1
362,119,13,0.0848794941464838,1
362,120,13,0.091736027313034,1
362,121,13,0.0991409450674266,1
362,122,13,0.108091603685796,1
362,123,13,0.126976119734067,1
362,124,13,0.128074729782841,1
362,125,13,0.125550444064611,1
362,126,13,0.108516373645693,1
362,127,13,0.0945277688802245,1
362,128,13,0.089979356909395,1
362,129,13,0.0850083322518204,1
362,130,13,0.0664057976917292,1
362,131,13,0.0492393742504195,1
363,118,13,0.0884210405811268,1
363,119,13,0.0924514998973713,1
363,120,13,0.102114277259419,1
363,121,13,0.108239828485854,1
363,122,13,0.112591249777945,1
363,123,13,0.126216805606563,1
363,124,13,0.129273598382241,1
363,125,13,0.128736374087502,1
363,126,13,0.113286225390978,1
363,127,13,0.0973201720111815,1
363,128,13,0.0871559120559699,1
363,129,13,0.0775963846633181,1
363,130,13,0.0648360276812086,1
363,131,13,0.0536787375016223,1
364,118,13,0.0906754140353687,1
364,119,13,0.0996328148514277,1
364,120,13,0.109918290546841,1
364,121,13,0.113247049310547,1
364,122,13,0.114625276476127,1
364,123,13,0.119966546733785,1
364,124,13,0.123700297577135,1
364,125,13,0.120367235772582,1
364,126,13,0.109476492510868,1
364,127,13,0.095677986655511,1
364,128,13,0.0824473326209154,1
364,129,13,0.0701720456978336,1
364,130,13,0.0628401473250733,1
364,131,13,0.0558072757747545,1
364,132,13,0.0468860509912641,1
365,119,13,0.101042877615996,1
365,120,13,0.110563194411846,1
365,121,13,0.118160374102229,1
365,122,13,0.121495345812612,1
365,123,13,0.116985045667459,1
365,124,13,0.114057090997118,1
365,125,13,0.106380443116561,1
365,126,13,0.0982132140631659,1
365,127,13,0.0886423768064718,1
365,128,13,0.0796390289486498,1
365,129,13,0.071527026087933,1
365,130,13,0.0665989800642649,1
365,131,13,0.0602479851644038,1
365,132,13,0.0496433308389503,1
366,120,13,0.107177449120569,1
366,121,13,0.120574713675202,1
366,122,13,0.129250311337661,1
366,123,13,0.120500089282345,1
366,124,13,0.113424843134602,1
366,125,13,0.105803927686823,1
366,126,13,0.0962552039181143,1
366,127,13,0.0844595507257182,1
366,128,13,0.0772688933407336,1
366,129,13,0.0733392563424981,1
366,130,13,0.0720300791759516,1
366,131,13,0.0687501265600249,1
366,132,13,0.0580383564316884,1
366,133,13,0.0517652247107758,1
367,121,13,0.118841704243489,1
367,122,13,0.123165754053833,1
367,123,13,0.118008950785178,1
367,124,13,0.113496970843332,1
367,125,13,0.105230173566719,1
367,126,13,0.0924113113367408,1
367,127,13,0.0817863786436631,1
367,128,13,0.0759533536565722,1
367,129,13,0.0733057984741003,1
367,130,13,0.0738391281717093,1
367,131,13,0.0743865520539081,1
367,132,13,0.067787493752537,1
367,133,13,0.0652636682525788,1
368,125,13,0.104973981559974,1
368,126,13,0.0884839236553112,1
368,127,13,0.0816744075380071,1
368,128,13,0.0786713222347095,1
368,129,13,0.0738799898015631,1
368,130,13,0.071393925210849,1
368,131,13,0.0721927145606618,1
368,132,13,0.0708274828085464,1
369,124,13,0.120455793273634,1
369,125,13,0.105065921665327,1
369,126,13,0.0886232432318,1
369,127,13,0.0856913134261317,1
369,128,13,0.0870488077585437,1
369,129,13,0.0792826876931191,1
369,130,13,0.0715269858188342,1
369,131,13,0.0706758754041867,1
370,125,13,0.102264124328887,1
370,126,13,0.0930763439984316,1
370,127,13,0.0925916938885775,1
370,128,13,0.0948991822841737,1
370,129,13,0.0867251362476195,1
370,130,13,0.0779714683079891,1
371,124,13,0.105302220737251,1
371,125,13,0.100037749403787,1
371,126,13,0.10474442468574,1
371,127,13,0.10014515284309,1
371,128,13,0.0950879983358507,1
371,129,13,0.0885245436705721,1
372,125,13,0.114930746354381,1
372,126,13,0.130755604768229,1
372,127,13,0.108683340834891,1
372,128,13,0.0941183644578951,1
373,126,13,0.138676202849487,1
373,127,13,0.103771005512494,1
354,119,14,0.0518957713764484,1
355,118,14,0.0581970339392567,1
355,119,14,0.0573609323930154,1
355,120,14,0.0559935721313905,1
355,121,14,0.0544795115427345,1
355,122,14,0.0559430056487191,1
355,123,14,0.0543043869846591,1
355,124,14,0.0478917487235846,1
356,119,14,0.0591116429700278,1
356,120,14,0.0647397902877377,1
356,121,14,0.0693543586352135,1
356,122,14,0.0742801380838904,1
356,123,14,0.0711535301963015,1
356,124,14,0.060317173228919,1
356,125,14,0.0503953677650236,1
356,126,14,0.047313530486239,1
356,127,14,0.0511793380864677,1
357,119,14,0.0673103509532501,1
357,120,14,0.0693191807010229,1
357,121,14,0.0756018389401725,1
357,122,14,0.0827956373148657,1
357,123,14,0.0825472172441946,1
357,124,14,0.0716116774863983,1
357,125,14,0.0587972966318466,1
357,126,14,0.05103698682211,1
357,127,14,0.0490390412364776,1
358,120,14,0.0675148316843713,1
358,121,14,0.0726939555392331,1
358,124,14,0.0813422334945018,1
358,125,14,0.0686415323059421,1
358,126,14,0.0557948498814018,1
358,127,14,0.0474404270457393,1
359,124,14,0.0835194916244877,1
359,125,14,0.0789009769053267,1
359,126,14,0.0650440348348415,1
359,127,14,0.0536561695480933,1
360,121,14,0.0747006625302248,1
360,122,14,0.0778954402494015,1
360,123,14,0.0813426476909469,1
360,124,14,0.0860932853233632,1
360,125,14,0.0903209481692977,1
360,126,14,0.0767796640590699,1
360,127,14,0.063262541408139,1
360,128,14,0.0513509937493154,1
361,120,14,0.0812718373570217,1
361,121,14,0.085084843539594,1
361,122,14,0.084949550872988,1
361,123,14,0.0894804170221853,1
361,124,14,0.0948900239405545,1
361,125,14,0.100453821238337,1
361,126,14,0.0863811633581575,1
361,127,14,0.0723493498496467,1
361,128,14,0.0629287566006806,1
361,129,14,0.0580602743269078,1
361,130,14,0.0470165717696589,1
362,119,14,0.0760873979811145,1
362,120,14,0.0828025808580494,1
362,121,14,0.0904561487922492,1
362,122,14,0.0957709564992485,1
362,123,14,0.10514914063442,1
362,124,14,0.107601643807625,1
362,125,14,0.11082825712579,1
362,126,14,0.0972424986722703,1
362,127,14,0.0810352391432208,1
362,128,14,0.0720307292342612,1
362,129,14,0.0663947812168355,1
362,130,14,0.0527757259713137,1
363,119,14,0.0831000429383648,1
363,120,14,0.0924945993385743,1
363,121,14,0.0988703597342147,1
363,122,14,0.103302871485888,1
363,123,14,0.113029297034998,1
363,124,14,0.116422244742236,1
363,125,14,0.119841862098356,1
363,126,14,0.106887799245426,1
363,127,14,0.0880858348497525,1
363,128,14,0.0743637079694157,1
363,129,14,0.0636083033961347,1
363,130,14,0.0537691876503188,1
364,119,14,0.0901340707870929,1
364,120,14,0.101408405978788,1
364,121,14,0.104579793104273,1
364,122,14,0.107830821001785,1
364,123,14,0.113011256478723,1
364,124,14,0.115106802854458,1
364,125,14,0.116201938255276,1
364,126,14,0.107659757869963,1
364,127,14,0.0891670313896475,1
364,128,14,0.0732215555193517,1
364,129,14,0.0605250250588849,1
364,130,14,0.0548229091593561,1
364,131,14,0.0496761501544953,1
365,120,14,0.100236322082837,1
365,121,14,0.10765385557062,1
365,122,14,0.114988262132964,1
365,123,14,0.11303545245439,1
365,124,14,0.108652161046941,1
365,125,14,0.106703240212768,1
365,126,14,0.0996072267154866,1
365,127,14,0.0831977702884924,1
365,128,14,0.0708070088481565,1
365,129,14,0.0638370491356641,1
365,130,14,0.060181138460349,1
365,131,14,0.0555711032628555,1
365,132,14,0.0486480800614115,1
366,121,14,0.107484828904653,1
366,122,14,0.117892216420404,1
366,123,14,0.113029630693245,1
366,124,14,0.110270438063365,1
366,125,14,0.10920023498745,1
366,126,14,0.0974128599712272,1
366,127,14,0.0785796467548629,1
366,128,14,0.0687218634053759,1
366,129,14,0.0665056362931811,1
366,130,14,0.0655853205558332,1
366,131,14,0.0627079151099784,1
366,132,14,0.0561864956311479,1
366,133,14,0.053066721984903,1
367,125,14,0.109273168078156,1
367,126,14,0.0910123743489062,1
367,127,14,0.074411283033317,1
367,128,14,0.0681523317879204,1
367,129,14,0.0679442613542751,1
367,130,14,0.0690144989465604,1
367,131,14,0.0685192983328133,1
367,132,14,0.0621525179462115,1
368,124,14,0.114958014287016,1
368,125,14,0.102475537097735,1
368,126,14,0.0835599160469828,1
368,127,14,0.0741442989080861,1
368,128,14,0.0722515016922226,1
368,129,14,0.0698368284610025,1
368,130,14,0.0687952912307249,1
368,131,14,0.0678920726021938,1
369,124,14,0.11529577998253,1
369,125,14,0.0992824621861657,1
369,126,14,0.0842861117170652,1
369,127,14,0.0788461303927227,1
369,128,14,0.081520602591397,1
369,129,14,0.0764870860451695,1
369,130,14,0.0696210551240242,1
370,124,14,0.117401209545663,1
370,125,14,0.101491187740522,1
370,126,14,0.0928428522579689,1
370,127,14,0.0857765803665362,1
370,128,14,0.0894846165139202,1
370,129,14,0.0887965039058725,1
371,123,14,0.118678430305925,1
371,124,14,0.109232875968414,1
371,125,14,0.0994398683407567,1
371,126,14,0.103237992214948,1
371,127,14,0.0946531726067039,1
371,128,14,0.0918989963559917,1
371,129,14,0.097908883225136,1
372,124,14,0.107369222074646,1
372,125,14,0.107942009736378,1
372,126,14,0.11734830745526,1
372,127,14,0.101476299679412,1
372,128,14,0.0912640332056688,1
373,125,14,0.118290339742333,1
373,127,14,0.092871771223656,1
356,120,15,0.0541587854287532,1
356,121,15,0.05646890282123,1
356,122,15,0.0586681133628057,1
357,120,15,0.0579919319134679,1
357,121,15,0.0601026769976464,1
357,124,15,0.0550251923482269,1
359,124,15,0.0645572849791199,1
359,125,15,0.0615871685623057,1
359,126,15,0.0522288428455848,1
360,123,15,0.0632301305363108,1
360,124,15,0.067027730912217,1
360,125,15,0.0719099391959619,1
360,126,15,0.0624263708291568,1
360,127,15,0.0526178365875367,1
361,121,15,0.0698927794974601,1
361,122,15,0.0679296206604869,1
361,123,15,0.0681119533872525,1
361,124,15,0.0729682456295372,1
361,125,15,0.0801154756677997,1
361,126,15,0.0708095285431975,1
361,127,15,0.0601236974672348,1
361,128,15,0.0515133299921487,1
362,120,15,0.0679293905513507,1
362,121,15,0.0760336099705368,1
362,122,15,0.0794542800759544,1
362,123,15,0.0833801778007273,1
362,124,15,0.0852497454992954,1
362,125,15,0.0889113283648169,1
362,126,15,0.0804224987827227,1
362,127,15,0.067697066614754,1
362,128,15,0.0580374129842302,1
362,129,15,0.0511199181547825,1
363,119,15,0.070181877110676,1
363,120,15,0.0747422317456723,1
363,121,15,0.083398212604274,1
363,122,15,0.0885755761242442,1
363,123,15,0.0958545206320454,1
363,124,15,0.0962046259299861,1
363,125,15,0.0975988801968998,1
363,126,15,0.0890083308711656,1
363,127,15,0.0728401783898067,1
363,128,15,0.0607835354151767,1
363,129,15,0.0515938566843483,1
364,120,15,0.0804952592915768,1
364,121,15,0.0887109838454182,1
364,122,15,0.094742719577041,1
364,123,15,0.102367546880134,1
364,124,15,0.100730308870891,1
364,125,15,0.101161694468452,1
364,126,15,0.0950514512522999,1
364,127,15,0.0760866098573231,1
364,128,15,0.061727322284413,1
364,129,15,0.0519892877293843,1
364,130,15,0.0476023807321336,1
365,121,15,0.0919340764937995,1
365,122,15,0.0996016350634779,1
365,123,15,0.10320240583704,1
365,124,15,0.0970938711812238,1
365,125,15,0.097054418969829,1
365,126,15,0.0907700636758002,1
365,127,15,0.0723152706865812,1
365,128,15,0.0599507646986813,1
365,129,15,0.0553787780468521,1
365,130,15,0.0526192402532673,1
365,131,15,0.0487414295852237,1
366,125,15,0.102240480615146,1
366,126,15,0.0887311586639311,1
366,127,15,0.0687640366573058,1
366,128,15,0.0589178968301086,1
366,129,15,0.0587674112077876,1
366,130,15,0.0580023040827804,1
366,131,15,0.0548039999410921,1
366,132,15,0.0503222333288232,1
367,125,15,0.104284448028011,1
367,126,15,0.0830783724104668,1
367,127,15,0.0652550449127012,1
367,128,15,0.0593331977990521,1
367,129,15,0.0613288307878661,1
367,130,15,0.0625867396388759,1
367,131,15,0.06097110312479,1
368,124,15,0.108142469310345,1
368,125,15,0.0961982519069144,1
368,126,15,0.0770284120352601,1
368,127,15,0.0658197499910257,1
368,128,15,0.0635236980194967,1
368,129,15,0.0642004950107737,1
368,130,15,0.0647950279858731,1
369,123,15,0.127120570744293,1
369,124,15,0.10882399504437,1
369,125,15,0.0923920742129577,1
369,126,15,0.0799971132808869,1
369,127,15,0.071302784734744,1
369,128,15,0.0718587744295364,1
369,129,15,0.070739368267582,1
370,123,15,0.120674569534839,1
370,124,15,0.110232562099553,1
370,125,15,0.0975191358757632,1
370,126,15,0.0914398423384243,1
370,127,15,0.0793788848174912,1
370,128,15,0.0800885413934121,1
370,129,15,0.0844097551086529,1
371,123,15,0.110992704619947,1
371,124,15,0.109643126041819,1
371,125,15,0.0994802179777825,1
371,126,15,0.100704628691296,1
371,127,15,0.0892009322181324,1
371,128,15,0.084858864862427,1
372,124,15,0.113320626706835,1
372,125,15,0.105849742415833,1
372,126,15,0.105371518103606,1
372,127,15,0.0937690587892025,1
373,125,15,0.114845180272099,1
373,126,15,0.102956603257793,1
360,124,16,0.0508691394654657,1
360,125,16,0.0538722707905906,1
360,126,16,0.0498648166352338,1
361,123,16,0.0516309560298258,1
361,124,16,0.0541404227196875,1
361,125,16,0.0588135193259459,1
361,126,16,0.0565459088436464,1
361,127,16,0.0503682148869566,1
362,121,16,0.0649592051017957,1
362,122,16,0.0668937786313293,1
362,123,16,0.0651136946230858,1
362,124,16,0.0644060630075632,1
362,125,16,0.0655965383762211,1
362,126,16,0.0638461499519992,1
362,127,16,0.0566997310484417,1
362,128,16,0.0495666872384234,1
363,120,16,0.064977619585417,1
363,121,16,0.0713667090527696,1
363,122,16,0.0755228309682716,1
363,123,16,0.0769856577577614,1
363,124,16,0.0742682586997361,1
363,125,16,0.0734877572735197,1
363,126,16,0.0710447403494529,1
363,127,16,0.06041178835298,1
363,128,16,0.0512751497780367,1
364,121,16,0.0770967486959715,1
364,122,16,0.0821726916141788,1
364,123,16,0.0856350632477972,1
364,124,16,0.0814630580491716,1
364,125,16,0.0808699517507163,1
364,126,16,0.078748644657188,1
364,127,16,0.0638337010477329,1
364,128,16,0.052174283969401,1
365,125,16,0.0811849654053925,1
365,126,16,0.0776207417153808,1
365,127,16,0.0617502469071031,1
365,128,16,0.0508994103223277,1
365,129,16,0.046999230169885,1
366,126,16,0.0773178605649087,1
366,127,16,0.0597285310477053,1
366,128,16,0.0507670055253806,1
366,129,16,0.0503032148087195,1
366,130,16,0.0493382751571415,1
367,125,16,0.0917212600592209,1
367,126,16,0.075622404944217,1
367,127,16,0.058060947396131,1
367,128,16,0.0520316508213515,1
367,129,16,0.0543593140354607,1
367,130,16,0.0550822939303653,1
368,124,16,0.096779829737648,1
368,125,16,0.0876084676940579,1
368,126,16,0.0741587382563802,1
368,127,16,0.0605818850264303,1
368,128,16,0.0563852926666059,1
368,129,16,0.0594380010051167,1
369,124,16,0.0997343620132156,1
369,125,16,0.0852235763377855,1
369,126,16,0.0763707716295685,1
369,127,16,0.0658331193318367,1
369,128,16,0.0635293932206167,1
369,129,16,0.0665498287527809,1
370,124,16,0.0998850144646603,1
370,125,16,0.0924755232911865,1
370,126,16,0.087368308541375,1
370,127,16,0.0748662030427791,1
370,128,16,0.0719635258610454,1
370,129,16,0.0787087955075333,1
371,124,16,0.10398195806307,1
371,125,16,0.0980921651520883,1
371,126,16,0.0952978808789433,1
371,127,16,0.0837697583209765,1
371,128,16,0.0785255020751242,1
372,125,16,0.10333119792055,1
372,126,16,0.0964435079769633,1
372,127,16,0.0866093625884885,1
373,126,16,0.0952546031031598,1
361,125,17,0.0502948675998052,1
361,126,17,0.0496567922234157,1
362,123,17,0.0564064914707748,1
362,124,17,0.0550479673999785,1
362,125,17,0.0570508775902235,1
362,126,17,0.0565237896029329,1
362,127,17,0.050539295276964,1
363,121,17,0.0694040161867971,1
363,123,17,0.0682368623790892,1
363,124,17,0.0648634394320538,1
363,125,17,0.0643824135410943,1
363,126,17,0.0623023304993092,1
363,127,17,0.0533966869807012,1
364,126,17,0.0689631731037396,1
364,127,17,0.0566925804070354,1
365,126,17,0.0696237128845469,1
365,127,17,0.0566443667902813,1
366,127,17,0.0574327667125965,1
366,128,17,0.0482292325354069,1
367,126,17,0.0759000258642669,1
367,127,17,0.058982816370148,1
367,128,17,0.0510450348891472,1
367,129,17,0.0509441607965826,1
368,125,17,0.0835822078695484,1
368,126,17,0.077008662918649,1
368,127,17,0.0609992224612289,1
368,128,17,0.0547052313471233,1
368,129,17,0.0578762100288925,1
369,125,17,0.0816234268588906,1
369,126,17,0.0763766221543554,1
369,127,17,0.0645258865874907,1
369,128,17,0.06085568613482,1
369,129,17,0.0665823604319056,1
370,125,17,0.088316432967828,1
370,126,17,0.0845032542034036,1
370,127,17,0.0729532827829583,1
370,128,17,0.0679828333982241,1
371,125,17,0.095893955585255,1
371,126,17,0.0906655135897854,1
371,127,17,0.0794661882237508,1
372,126,17,0.0919674710821849,1
364,127,18,0.0473857531149874,1
368,127,18,0.0568561189701051,1
368,128,18,0.0498031703976562,1
369,128,18,0.056397695549045,1
371,126,18,0.0855072778917585,1
