x,y,z,signal,mito.p
170,989,28,0.0666774300215106,1
170,990,28,0.0845029665669834,1
169,989,29,0.0695462639020435,1
169,990,29,0.0831643066673662,1
170,989,29,0.0633400996924822,1
171,989,29,0.0559906267344476,1
167,988,30,0.0574368223861213,1
168,989,30,0.0622430256221921,1
168,990,30,0.0666081153969705,1
168,991,30,0.0754633995311296,1
169,988,30,0.0470773493452475,1
169,989,30,0.0597061069123864,1
169,990,30,0.0765196752515783,1
170,989,30,0.0564971142013234,1
171,989,30,0.0532204463933154,1
172,989,30,0.0526235835632124,1
172,990,30,0.0792537227056048,1
166,988,31,0.0543375514639083,1
166,989,31,0.0560247116502415,1
167,987,31,0.0501916463940518,1
167,988,31,0.0541933593264614,1
167,989,31,0.0578249129497138,1
167,990,31,0.0579393519758551,1
167,991,31,0.0614640831853732,1
167,992,31,0.0724785158605023,1
168,988,31,0.0523837120469496,1
168,989,31,0.0561875656386311,1
168,990,31,0.0602107420007161,1
168,991,31,0.0701119239332831,1
169,988,31,0.0480564637196129,1
169,989,31,0.0523624211991263,1
169,990,31,0.066733933319895,1
170,989,31,0.0513301343561224,1
171,989,31,0.0525486657812067,1
172,989,31,0.0559741969421257,1
165,988,32,0.0525616036673874,1
165,989,32,0.0550492042365853,1
166,987,32,0.0626375074670415,1
166,988,32,0.05353315895663,1
166,989,32,0.052424752011384,1
166,990,32,0.0540332321313352,1
167,986,32,0.0519021281413349,1
167,987,32,0.0573361841554212,1
167,988,32,0.0531200440244799,1
167,989,32,0.0530119905268671,1
167,990,32,0.0547248941728083,1
167,992,32,0.0642522235445827,1
168,987,32,0.0570603063120777,1
168,988,32,0.0546791369710826,1
168,989,32,0.0527699042101688,1
168,990,32,0.0561994737864274,1
168,991,32,0.065955802017781,1
169,987,32,0.0559006828258506,1
169,988,32,0.0532525408650815,1
169,989,32,0.0507494136819211,1
169,990,32,0.0600531287479026,1
170,987,32,0.0491217654709276,1
170,988,32,0.0498169999567395,1
170,989,32,0.0511083839343324,1
171,988,32,0.0493301580573634,1
171,989,32,0.0549899051121966,1
172,988,32,0.0501004886597615,1
172,989,32,0.0593873367260624,1
173,988,32,0.0514861138340692,1
174,985,32,0.051034979119897,1
174,986,32,0.0511382405947493,1
174,987,32,0.0521308106008518,1
164,989,33,0.0628031630341638,1
165,988,33,0.0565587201698021,1
165,989,33,0.0558121828520831,1
165,990,33,0.0588908014793256,1
166,987,33,0.0739397951660514,1
166,988,33,0.056341111712463,1
166,989,33,0.0515290291879633,1
166,990,33,0.0531386483481386,1
166,991,33,0.0538199554784843,1
167,987,33,0.0614758302567742,1
167,988,33,0.0533117191821737,1
167,989,33,0.050886230821554,1
167,990,33,0.0533075427013524,1
167,991,33,0.0563369179734564,1
167,993,33,0.0572810269954834,1
168,988,33,0.0550757875945403,1
168,989,33,0.050270217158594,1
168,990,33,0.0524533545770088,1
168,991,33,0.0590789387090509,1
168,992,33,0.0653903778484059,1
168,993,33,0.064024012808795,1
168,994,33,0.0601078544532101,1
169,988,33,0.0553822009202525,1
169,989,33,0.0492566611992736,1
169,990,33,0.0527774920589337,1
169,991,33,0.0675112477345755,1
170,987,33,0.0543266615490395,1
170,988,33,0.0536864806740541,1
170,989,33,0.0513738320810794,1
170,990,33,0.0589675773926058,1
171,988,33,0.0580333515579769,1
171,989,33,0.0597041624901858,1
171,990,33,0.0687639043445525,1
172,987,33,0.0518296552689009,1
172,988,33,0.0602041896430639,1
172,989,33,0.0658263196068631,1
172,990,33,0.0758440863332661,1
173,985,33,0.0497133300381705,1
173,986,33,0.048002885683622,1
173,987,33,0.0504200814862473,1
173,988,33,0.0564617176634534,1
173,989,33,0.0655882256836773,1
174,984,33,0.0578674371180764,1
174,985,33,0.057428060980762,1
174,986,33,0.0600774167672244,1
174,987,33,0.0593028061348937,1
174,988,33,0.0566453850232088,1
175,985,33,0.0694689759959354,1
175,986,33,0.078870113517439,1
175,987,33,0.0796557751410339,1
164,989,34,0.0624545879619786,1
165,988,34,0.0600976376075645,1
165,989,34,0.0557623066968202,1
165,990,34,0.0572938843434664,1
166,987,34,0.0778905906993569,1
166,988,34,0.0578712569297366,1
166,989,34,0.0518965364893262,1
166,990,34,0.0530225180198465,1
166,991,34,0.0528271668687025,1
166,993,34,0.0522347278867421,1
167,987,34,0.0634449201567319,1
167,988,34,0.0554130758135969,1
167,989,34,0.0513640927118914,1
167,990,34,0.0527809552014329,1
167,991,34,0.055010413588957,1
167,992,34,0.0555066496938168,1
167,993,34,0.0537390088371113,1
167,994,34,0.0521172801836455,1
168,988,34,0.0577118890947599,1
168,989,34,0.0515618830198787,1
168,990,34,0.0522112625075821,1
168,991,34,0.0567119325853866,1
168,992,34,0.0603165519342514,1
168,993,34,0.0578044217311386,1
168,994,34,0.0550400458929661,1
168,995,34,0.0486873366800406,1
169,988,34,0.0586555321457861,1
169,989,34,0.0511562638928391,1
169,990,34,0.051510672231626,1
169,991,34,0.0597384832678443,1
169,992,34,0.0688700364308784,1
169,993,34,0.0629537464528677,1
169,994,34,0.0553905826455371,1
170,987,34,0.0593932217672198,1
170,988,34,0.0580197751189434,1
170,989,34,0.0539487072928949,1
170,990,34,0.0569965315649906,1
170,991,34,0.0680415054752168,1
170,993,34,0.0674563436946875,1
171,986,34,0.053284370711341,1
171,987,34,0.0596200806118326,1
171,988,34,0.0650995256530267,1
171,989,34,0.06320443309853,1
171,990,34,0.0670378269505661,1
171,991,34,0.0755461755401352,1
172,985,34,0.0519452218298094,1
172,986,34,0.0504705156561654,1
172,987,34,0.0593431960410183,1
172,988,34,0.0687489357452453,1
172,989,34,0.0699966565142516,1
172,990,34,0.07434127232864,1
173,984,34,0.0556479194452345,1
173,985,34,0.0562885202693934,1
173,986,34,0.0523304820510272,1
173,987,34,0.0544658142964045,1
173,988,34,0.0603437105650468,1
173,989,34,0.0671126641943741,1
173,990,34,0.0748262676021984,1
174,983,34,0.0711041430229529,1
174,984,34,0.0605791697386236,1
174,985,34,0.0650675174721867,1
174,986,34,0.069769630840515,1
174,987,34,0.0644753143520909,1
174,988,34,0.057331639499982,1
174,989,34,0.0628533095676617,1
174,990,34,0.072746351389537,1
175,984,34,0.0695922166965348,1
175,985,34,0.0756963102460235,1
175,986,34,0.100327709926264,1
175,987,34,0.0992732923370896,1
175,988,34,0.0702469979962096,1
176,985,34,0.0842032321589483,1
176,986,34,0.112903991104901,1
176,987,34,0.125770382376954,1
165,989,35,0.0556343257480158,1
165,990,35,0.056239092826946,1
166,988,35,0.0586278327585207,1
166,989,35,0.0538276066072617,1
166,990,35,0.0532414323465333,1
166,991,35,0.0523318742113009,1
166,993,35,0.050583706340243,1
167,988,35,0.0589062533078188,1
167,989,35,0.0551821382845456,1
167,990,35,0.0534542085120131,1
167,991,35,0.0535224186126996,1
167,992,35,0.0538185575654822,1
167,993,35,0.0521092436220651,1
167,994,35,0.0492374010645769,1
168,989,35,0.054489342955577,1
168,990,35,0.0532180705164846,1
168,991,35,0.054562442875407,1
168,992,35,0.0559578591934583,1
168,993,35,0.0537076219509389,1
168,994,35,0.0500181556108431,1
169,988,35,0.0589056550240648,1
169,989,35,0.0532655420312746,1
169,990,35,0.052806129140929,1
169,991,35,0.0563400071886094,1
169,992,35,0.059745156432793,1
169,993,35,0.0557605866310274,1
169,994,35,0.0499982799342072,1
170,987,35,0.0620651224962975,1
170,988,35,0.0589247253187242,1
170,989,35,0.0550178518667834,1
170,990,35,0.0570031414499269,1
170,991,35,0.0634459268842026,1
170,992,35,0.068464618649333,1
170,993,35,0.062031854467937,1
171,986,35,0.056407135776356,1
171,987,35,0.0634914884931625,1
171,988,35,0.0662654196132142,1
171,989,35,0.0628128736397098,1
171,990,35,0.0663813255850985,1
171,991,35,0.0731126391124783,1
171,992,35,0.0770885625634526,1
172,986,35,0.0532201875205372,1
172,987,35,0.0634645369605897,1
172,988,35,0.0701242347720677,1
172,989,35,0.068801187777339,1
172,990,35,0.0734648153926444,1
172,991,35,0.0780050642418686,1
173,985,35,0.0578787930039459,1
173,986,35,0.0541552129844142,1
173,987,35,0.0561314190094078,1
173,988,35,0.0600996740734195,1
173,989,35,0.064596328746798,1
173,990,35,0.0720841720811346,1
173,991,35,0.0778520589245067,1
174,984,35,0.0613523594470385,1
174,985,35,0.0659930566869255,1
174,986,35,0.0706215869062379,1
174,987,35,0.062945934247695,1
174,988,35,0.056063490792413,1
174,989,35,0.0579704857419777,1
174,990,35,0.064964008630013,1
175,985,35,0.0751133114913741,1
175,986,35,0.103237094789317,1
175,987,35,0.0986155828986572,1
175,988,35,0.0715181438752772,1
176,987,35,0.129283665656948,1
164,990,36,0.0602221439084129,1
165,989,36,0.0574991531983789,1
165,990,36,0.0579546197170394,1
165,991,36,0.0585711856419263,1
166,988,36,0.0610250579644914,1
166,989,36,0.0572431740425849,1
166,990,36,0.0549977518337397,1
166,991,36,0.0543096737420624,1
166,992,36,0.0525943079283643,1
166,994,36,0.0497041084145388,1
167,989,36,0.0610970763713814,1
167,990,36,0.0559383689496254,1
167,991,36,0.0534230402295201,1
167,992,36,0.0529448849500341,1
167,993,36,0.0506545626959955,1
167,994,36,0.047818085036371,1
167,995,36,0.0482369584496535,1
168,989,36,0.0611082539226704,1
168,990,36,0.0578096682194431,1
168,991,36,0.0554922160982511,1
168,992,36,0.0542377186151848,1
168,993,36,0.0511232777481704,1
169,988,36,0.0648532686082355,1
169,989,36,0.0609962598061008,1
169,990,36,0.0589366507247057,1
169,991,36,0.0573955580652792,1
169,992,36,0.0556123848418828,1
169,993,36,0.052053413392904,1
169,994,36,0.0471643190932595,1
170,987,36,0.0688389601920399,1
170,988,36,0.0661967492942553,1
170,989,36,0.0624096418949579,1
170,990,36,0.0624635794764741,1
170,991,36,0.0634912929003968,1
170,992,36,0.0639242950146395,1
170,993,36,0.0602728081874672,1
170,994,36,0.051966616226744,1
171,986,36,0.061064976146887,1
171,987,36,0.068926528223806,1
171,988,36,0.0696301444349026,1
171,989,36,0.0665238379258515,1
171,990,36,0.0689634032128758,1
171,991,36,0.0725693687001871,1
171,992,36,0.0744870694773117,1
171,993,36,0.0725478822595981,1
172,986,36,0.0568880983873031,1
172,987,36,0.0663747041947055,1
172,988,36,0.0704854715994702,1
172,989,36,0.0695026467152841,1
172,990,36,0.0743116745410013,1
172,991,36,0.0772936933528834,1
172,992,36,0.0797160522292513,1
173,985,36,0.0583929833741547,1
173,986,36,0.0563413590797844,1
173,987,36,0.0593198227055128,1
173,988,36,0.0626772588203133,1
173,989,36,0.0655316706107373,1
173,990,36,0.07105711446825,1
173,991,36,0.0736121370143432,1
174,985,36,0.0662489898208923,1
174,986,36,0.0691459315324072,1
174,987,36,0.0643729733137833,1
174,988,36,0.0603742230365018,1
174,989,36,0.0591231254159223,1
174,990,36,0.0619206772388008,1
175,986,36,0.0965126039978241,1
175,987,36,0.0941115819911067,1
175,988,36,0.0769044637490669,1
175,989,36,0.0638919589282805,1
176,987,36,0.119657901349452,1
176,988,36,0.099112986807383,1
164,991,37,0.0633425561075107,1
164,992,37,0.0607089570441469,1
165,990,37,0.063661004141044,1
165,991,37,0.06695134043174,1
165,992,37,0.059754055903634,1
166,989,37,0.0604657029235826,1
166,990,37,0.05851140904108,1
166,991,37,0.0590180115625239,1
166,992,37,0.0553367888822311,1
166,993,37,0.0513165349061753,1
166,994,37,0.0512543421593994,1
167,990,37,0.0586655821623079,1
167,991,37,0.0547652438098341,1
167,992,37,0.0531147687725334,1
167,993,37,0.0498609968235735,1
167,994,37,0.0485500305584933,1
167,995,37,0.0507814678845883,1
168,989,37,0.06859457278398,1
168,990,37,0.0620329129699634,1
168,991,37,0.0567226901875021,1
168,992,37,0.0533590296205684,1
168,993,37,0.0494028380280199,1
169,988,37,0.073758676264979,1
169,989,37,0.0720765209523573,1
169,990,37,0.0661824825278133,1
169,991,37,0.0598099206491655,1
169,992,37,0.0544221740987315,1
169,993,37,0.0505675756897982,1
169,994,37,0.0473075907941619,1
170,987,37,0.0748477080209602,1
170,988,37,0.075627887294386,1
170,989,37,0.0730533342353611,1
170,990,37,0.069785278261774,1
170,991,37,0.0642597481133352,1
170,992,37,0.0599599287950289,1
170,993,37,0.0573288321685209,1
170,994,37,0.0519135990817725,1
171,986,37,0.0645665353663936,1
171,987,37,0.0710048969525266,1
171,988,37,0.0723129523370344,1
171,989,37,0.0719962013583803,1
171,990,37,0.0734545812888137,1
171,991,37,0.0714547142918944,1
171,992,37,0.0685872207970796,1
171,993,37,0.0664541033521378,1
172,986,37,0.0598462088599381,1
172,987,37,0.0654413412693372,1
172,988,37,0.0688658139282299,1
172,989,37,0.0702807952755833,1
172,990,37,0.0747363812208854,1
172,991,37,0.0744612109631356,1
172,992,37,0.0723618045066414,1
172,993,37,0.0727270222220995,1
173,986,37,0.0597098116694786,1
173,987,37,0.0630180792146099,1
173,988,37,0.0664122234893565,1
173,989,37,0.0670175888520407,1
173,990,37,0.0691274537687735,1
173,991,37,0.0689394546045298,1
173,992,37,0.0750061209030219,1
174,985,37,0.065285413565946,1
174,986,37,0.0674146536719435,1
174,987,37,0.0684492703699511,1
174,988,37,0.0684303553989586,1
174,989,37,0.0635542910291493,1
174,990,37,0.0612863698995159,1
174,991,37,0.0615545851086253,1
175,986,37,0.0833113636635583,1
175,987,37,0.0862910928895357,1
175,988,37,0.0812058478094991,1
175,989,37,0.068925688325459,1
175,990,37,0.0639143255363154,1
176,987,37,0.0984325771026683,1
176,988,37,0.090144552258245,1
176,989,37,0.0732197203989908,1
163,992,38,0.0689129805484145,1
164,991,38,0.0646327320121387,1
164,992,38,0.0619865114626565,1
164,993,38,0.0627673177834784,1
165,990,38,0.0661686069469028,1
165,991,38,0.0701290325475567,1
165,992,38,0.0607410054940857,1
165,994,38,0.0570203593660401,1
166,989,38,0.0612255117857297,1
166,990,38,0.0604443487957468,1
166,991,38,0.0617537158023307,1
166,992,38,0.0561035240293767,1
166,993,38,0.0516423176684238,1
166,994,38,0.0534825406994029,1
166,995,38,0.0604789169407266,1
167,990,38,0.0600133658891739,1
167,991,38,0.0560237451918696,1
167,992,38,0.0530871039016385,1
167,993,38,0.0491510698694177,1
167,994,38,0.0495692184389212,1
167,995,38,0.052495418527099,1
167,996,38,0.0493511842796802,1
168,990,38,0.0660679514580175,1
168,991,38,0.0583247445098261,1
168,992,38,0.0531859012592492,1
168,993,38,0.0481432263694025,1
168,994,38,0.0467718765906294,1
168,995,38,0.0475023005160888,1
168,997,38,0.047035026522379,1
169,989,38,0.0829656476973899,1
169,990,38,0.0733665530387752,1
169,991,38,0.0624187024421943,1
169,992,38,0.0543530147978583,1
169,993,38,0.0494920168237392,1
169,994,38,0.0472822126328075,1
169,995,38,0.0471336771854155,1
169,996,38,0.0478048393792208,1
170,988,38,0.0830925816496248,1
170,989,38,0.0830730338785079,1
170,990,38,0.0768540640955192,1
170,991,38,0.066240642611978,1
170,992,38,0.0580626502037386,1
170,993,38,0.0546697370128705,1
170,994,38,0.0515611409179145,1
170,995,38,0.0505283248238975,1
171,987,38,0.0744990869269477,1
171,988,38,0.0773973517659956,1
171,989,38,0.0795140739349859,1
171,990,38,0.0780734239134937,1
171,991,38,0.0708982241097308,1
171,992,38,0.0636346681504104,1
171,993,38,0.060521751756423,1
172,986,38,0.0677908878622953,1
172,987,38,0.0713762815928339,1
172,988,38,0.0780583402596183,1
172,989,38,0.0814889395742613,1
172,990,38,0.0789699176025205,1
172,991,38,0.0732731689985927,1
172,992,38,0.0674117830604699,1
173,987,38,0.0765316754430291,1
173,988,38,0.0880976394484376,1
173,989,38,0.0889504124015938,1
173,990,38,0.0776319192666698,1
173,991,38,0.0695098433785176,1
174,986,38,0.0726530018657249,1
174,987,38,0.0839366392192489,1
174,988,38,0.096234269739452,1
174,989,38,0.0925232249151127,1
174,990,38,0.0756712801247376,1
175,987,38,0.0875881548100633,1
175,988,38,0.0952784021405672,1
175,989,38,0.0881415442716171,1
162,992,39,0.0702562944053105,1
163,991,39,0.0627059419241358,1
163,992,39,0.0671441201132873,1
163,993,39,0.0709047304455557,1
164,990,39,0.0651964131048074,1
164,991,39,0.0643143300004326,1
164,992,39,0.0622993505859959,1
164,993,39,0.0617478710302722,1
164,994,39,0.0609865722114685,1
165,991,39,0.0692217237291303,1
165,992,39,0.0612733169587672,1
165,993,39,0.0571705976210397,1
165,994,39,0.0590489784995228,1
166,990,39,0.0651998187200225,1
166,991,39,0.0648002284523504,1
166,992,39,0.0583692303585745,1
166,993,39,0.0544220302805214,1
166,994,39,0.0567770304600066,1
166,995,39,0.0636245030793205,1
167,991,39,0.0616253724316369,1
167,992,39,0.0558150994853839,1
167,993,39,0.0518387445797793,1
167,994,39,0.0530095283591102,1
167,995,39,0.055384927713516,1
167,996,39,0.0513962504636699,1
168,989,39,0.086160132027418,1
168,990,39,0.0753972661653969,1
168,991,39,0.064005218645099,1
168,992,39,0.0556431274224739,1
168,993,39,0.0507060266042979,1
168,994,39,0.0506948663111941,1
168,995,39,0.0520544718949303,1
168,996,39,0.0506775103295991,1
169,988,39,0.0929443016233739,1
169,989,39,0.0951514969519744,1
169,990,39,0.0828022817161723,1
169,991,39,0.0672104490717858,1
169,992,39,0.056818271769935,1
169,993,39,0.0522472400710209,1
169,994,39,0.0515604505905061,1
169,995,39,0.0525668731666055,1
170,987,39,0.0880869336208777,1
170,988,39,0.0931526711988962,1
170,989,39,0.0932741285536904,1
170,990,39,0.0839091756938481,1
170,991,39,0.0687676378652868,1
170,992,39,0.0589699762803502,1
170,993,39,0.0560243549810804,1
170,994,39,0.0556225556657011,1
170,995,39,0.0558685480849857,1
170,996,39,0.0575935439660322,1
171,987,39,0.0856489388287077,1
171,988,39,0.0891466322147268,1
171,989,39,0.0893706894806069,1
171,990,39,0.0827543844994804,1
171,991,39,0.0713155615445293,1
171,992,39,0.0628582166449904,1
171,993,39,0.0608336992068598,1
172,987,39,0.0888645529301637,1
172,988,39,0.100606797792057,1
172,989,39,0.103294656589727,1
172,990,39,0.0871573559907993,1
172,991,39,0.07414475337363,1
172,992,39,0.066071731000579,1
173,987,39,0.0996554000631419,1
173,988,39,0.127290909032336,1
173,989,39,0.134556420919314,1
173,990,39,0.0978487557078571,1
173,991,39,0.0757982946151701,1
173,992,39,0.0669167262649329,1
174,987,39,0.104557357463498,1
174,988,39,0.1348141201409,1
174,989,39,0.142524110835287,1
174,990,39,0.101313474454664,1
174,991,39,0.0763382802195425,1
175,988,39,0.10998955534631,1
175,989,39,0.112928888913434,1
175,990,39,0.090307538559388,1
176,989,39,0.0863716080762784,1
183,989,39,0.062601420601763,1
184,989,39,0.0496115124981476,1
185,990,39,0.0497491867943128,1
162,992,40,0.0701587799061339,1
163,991,40,0.0642980440263208,1
163,992,40,0.0664498635913041,1
163,993,40,0.0704672642140715,1
163,994,40,0.0729175813504829,1
164,990,40,0.0661565262172543,1
164,991,40,0.0644592699925721,1
164,992,40,0.0632223758584221,1
164,993,40,0.062370258716304,1
164,994,40,0.0645506635887269,1
164,995,40,0.0785148652803051,1
165,990,40,0.0686302109364429,1
165,991,40,0.0671461335682287,1
165,992,40,0.062658487667531,1
165,993,40,0.059976318318252,1
165,994,40,0.0639530356457461,1
165,995,40,0.0787797496596686,1
166,991,40,0.0662694005012697,1
166,992,40,0.061084811554424,1
166,993,40,0.0585737110896956,1
166,994,40,0.0618449540748186,1
166,995,40,0.0684077586817876,1
167,990,40,0.0728130427699249,1
167,991,40,0.0660167924443205,1
167,992,40,0.0592648726437975,1
167,993,40,0.0560876925208088,1
167,994,40,0.0578522096459909,1
167,995,40,0.059755551613019,1
168,990,40,0.0833807875899382,1
168,991,40,0.0690586856534317,1
168,992,40,0.0589411953801449,1
168,993,40,0.0551455394264392,1
168,994,40,0.0563657276373038,1
168,995,40,0.0582904640012665,1
168,996,40,0.0579659583447237,1
169,989,40,0.103469401467728,1
169,990,40,0.0909139336604565,1
169,991,40,0.0715250586548188,1
169,992,40,0.0599446035265606,1
169,993,40,0.0564840209914758,1
169,994,40,0.0576897065740339,1
169,995,40,0.060366807769589,1
169,996,40,0.0628992278457827,1
170,988,40,0.103109004538673,1
170,989,40,0.101503694172072,1
170,990,40,0.0894250642694817,1
170,991,40,0.0714627220898328,1
170,992,40,0.0617659633611029,1
170,993,40,0.0600579150179347,1
170,994,40,0.061891746767657,1
170,995,40,0.0637734067013303,1
170,996,40,0.0653874324514631,1
170,997,40,0.0645480000754758,1
171,988,40,0.10330081200912,1
171,989,40,0.0986142942874947,1
171,990,40,0.0866087758101913,1
171,991,40,0.0722641749528967,1
171,992,40,0.0643843061887392,1
171,993,40,0.0646408893810156,1
171,994,40,0.0686144254497023,1
171,995,40,0.0704642382789309,1
171,996,40,0.0687484697742445,1
172,987,40,0.110480470177396,1
172,988,40,0.122006590785878,1
172,989,40,0.124426429967205,1
172,990,40,0.0990016945236787,1
172,991,40,0.0779446951099968,1
172,992,40,0.0667670632827738,1
173,987,40,0.122980412650112,1
173,988,40,0.159290506801566,1
173,989,40,0.180666287907029,1
173,990,40,0.129538925721691,1
173,991,40,0.0886556886199987,1
173,992,40,0.0689517942069565,1
174,987,40,0.123799037407462,1
174,988,40,0.164057275084427,1
174,989,40,0.191107812113129,1
174,990,40,0.138746029466856,1
174,991,40,0.0945853536915488,1
175,988,40,0.122676185361193,1
175,989,40,0.136031627580329,1
175,990,40,0.110825323234304,1
176,989,40,0.0959004849319935,1
180,989,40,0.113414890914463,1
180,990,40,0.0905245084638742,1
181,989,40,0.133579515592655,1
181,990,40,0.0969213353509302,1
182,988,40,0.088504921113986,1
182,989,40,0.0947408499403097,1
182,990,40,0.0790398535217283,1
183,988,40,0.0596864268285162,1
183,989,40,0.0656232310360158,1
183,990,40,0.0698235971856732,1
184,989,40,0.0565024412278255,1
162,993,41,0.0802528623275447,1
162,994,41,0.0893584994491187,1
163,992,41,0.0659267737502543,1
163,993,41,0.071773651307342,1
163,994,41,0.0767872288969212,1
163,995,41,0.0785041306891032,1
164,991,41,0.0646826541892289,1
164,992,41,0.0633745355247087,1
164,993,41,0.0640747461205901,1
164,994,41,0.067486137075092,1
164,995,41,0.0792278124168731,1
164,996,41,0.0899098409393607,1
165,991,41,0.0659833173177375,1
165,992,41,0.0635952447026576,1
165,993,41,0.062850594279855,1
165,994,41,0.0670229101258145,1
165,995,41,0.0814810008090637,1
165,996,41,0.0883296412322436,1
166,991,41,0.0671776872835248,1
166,992,41,0.0631317646333303,1
166,993,41,0.062074027719867,1
166,994,41,0.0638547272700496,1
166,995,41,0.0704546772443234,1
166,996,41,0.0710240535381121,1
167,991,41,0.0691270223141432,1
167,992,41,0.0621006455941924,1
167,993,41,0.0605261583463805,1
167,994,41,0.060881941587256,1
167,995,41,0.0624152623106087,1
167,996,41,0.0626907202047787,1
168,990,41,0.0885521452614546,1
168,991,41,0.072820348734998,1
168,992,41,0.0621983556861348,1
168,993,41,0.0602798150106633,1
168,994,41,0.0612519340672894,1
168,995,41,0.0624968129884642,1
168,996,41,0.063766382619949,1
169,990,41,0.0943084518625494,1
169,991,41,0.073716146343888,1
169,992,41,0.0625455961253303,1
169,993,41,0.0609510491135736,1
169,994,41,0.0634103577644805,1
169,995,41,0.0672267350458976,1
169,996,41,0.0695740610856917,1
169,997,41,0.0672312394322379,1
170,989,41,0.108452173196704,1
170,990,41,0.0909536389919011,1
170,991,41,0.0725216728289893,1
170,992,41,0.0647847536129435,1
170,993,41,0.0651645947640047,1
170,994,41,0.068534600590368,1
170,995,41,0.0726288058900575,1
170,996,41,0.0724436313154603,1
170,997,41,0.0684315232028246,1
170,998,41,0.0693386191703001,1
171,985,41,0.162456037649536,1
171,986,41,0.134948814523752,1
171,988,41,0.120259671256884,1
171,989,41,0.108813306474995,1
171,990,41,0.0897547358761313,1
171,991,41,0.0733945515679176,1
171,992,41,0.0672593069941212,1
171,993,41,0.0700373340567965,1
171,994,41,0.0745830652561897,1
171,995,41,0.0769021569049769,1
171,996,41,0.0718797201136555,1
171,997,41,0.0669167607813034,1
172,985,41,0.164584811784533,1
172,986,41,0.144979156714447,1
172,987,41,0.143369623845197,1
172,988,41,0.145563771985777,1
172,989,41,0.14495690516098,1
172,990,41,0.11352613717634,1
172,991,41,0.0819145724434185,1
172,992,41,0.0679763213096708,1
172,993,41,0.0707740629725866,1
172,994,41,0.0782383488841088,1
172,995,41,0.0830395472464681,1
172,996,41,0.0756156684992558,1
173,986,41,0.138176796991277,1
173,987,41,0.161362984736401,1
173,988,41,0.190402849763586,1
173,989,41,0.216687031325217,1
173,990,41,0.163379454107494,1
173,991,41,0.099147572210548,1
173,992,41,0.0700912026055718,1
173,993,41,0.0695508603320383,1
174,987,41,0.156045427225224,1
174,988,41,0.192769165559842,1
174,989,41,0.226119895143869,1
174,990,41,0.175832810985594,1
174,991,41,0.108482167922602,1
174,992,41,0.0743633915693535,1
175,988,41,0.142688776933124,1
175,989,41,0.154859870439352,1
175,990,41,0.130405551244844,1
175,991,41,0.0967126263644321,1
176,989,41,0.105960712546747,1
176,990,41,0.0978168395706716,1
177,989,41,0.08580821462003,1
177,990,41,0.0864022240968447,1
178,988,41,0.0855221832110533,1
178,989,41,0.0804155955086378,1
178,990,41,0.0840829541134769,1
178,991,41,0.0851401272595567,1
179,987,41,0.120569398154157,1
179,988,41,0.0950315928338492,1
179,989,41,0.0929664956495567,1
179,990,41,0.0928486164918297,1
179,991,41,0.0823459868046217,1
180,987,41,0.117627038651892,1
180,988,41,0.118505192642767,1
180,989,41,0.125485610815498,1
180,990,41,0.106712490600042,1
180,991,41,0.0806687443220571,1
180,992,41,0.0749149228996328,1
181,987,41,0.118541952577268,1
181,988,41,0.140831140393266,1
181,989,41,0.142317047129112,1
181,990,41,0.10268670825199,1
181,991,41,0.0771069482834319,1
181,992,41,0.0822908526555975,1
182,987,41,0.0849571789908518,1
182,988,41,0.0977101954915177,1
182,989,41,0.0956097938130096,1
182,990,41,0.0771205132170086,1
183,987,41,0.0563854594957296,1
183,988,41,0.0618812020164924,1
183,989,41,0.0671402887961702,1
162,993,42,0.0782412770228664,1
162,994,42,0.0883524162839952,1
163,992,42,0.0641663238040538,1
163,993,42,0.0719512380331744,1
163,994,42,0.0788846736730296,1
163,995,42,0.0778406972859088,1
164,992,42,0.0624179775984154,1
164,993,42,0.0658514705354455,1
164,994,42,0.0712202100712326,1
164,995,42,0.0768526834407023,1
164,996,42,0.0787167227672741,1
165,992,42,0.0638813508971035,1
165,993,42,0.0651708019579526,1
165,994,42,0.0705538197656384,1
165,995,42,0.0801696376057236,1
165,996,42,0.0823729958644786,1
166,991,42,0.067583329421478,1
166,992,42,0.0644587810106577,1
166,993,42,0.064510555566294,1
166,994,42,0.0666199142429271,1
166,995,42,0.0726394426848766,1
166,996,42,0.0747896399804499,1
167,990,42,0.0793190967111882,1
167,991,42,0.0704314362215712,1
167,992,42,0.0645008564662048,1
167,993,42,0.0646845123205034,1
167,994,42,0.0643552951793977,1
167,995,42,0.0663310927606745,1
167,996,42,0.0698465160556349,1
168,989,42,0.0977753508934217,1
168,990,42,0.0885863567372734,1
168,991,42,0.0739611953157143,1
168,992,42,0.0661316341614501,1
168,993,42,0.0685092885853903,1
168,994,42,0.0685188035981705,1
168,995,42,0.0682724717679101,1
168,996,42,0.0706201889932357,1
168,997,42,0.0709186002737378,1
169,989,42,0.106981948398486,1
169,990,42,0.0918290661895124,1
169,991,42,0.0736434203514043,1
169,992,42,0.0661305699066953,1
169,993,42,0.0694822072712646,1
169,994,42,0.0730196807741976,1
169,995,42,0.077123964854051,1
169,996,42,0.0775264027222831,1
169,997,42,0.0731572112521527,1
169,998,42,0.0713794398407277,1
170,985,42,0.150828450417464,1
170,986,42,0.14003506633126,1
170,988,42,0.118458975222769,1
170,989,42,0.108234927161254,1
170,990,42,0.0879364307403715,1
170,991,42,0.072036947933666,1
170,992,42,0.0680363337723816,1
170,993,42,0.0730435488443459,1
170,994,42,0.079995306924168,1
170,995,42,0.0881147710736248,1
170,996,42,0.0833374235232286,1
170,997,42,0.075191180423051,1
170,998,42,0.0787390433534817,1
171,984,42,0.146175482607891,1
171,985,42,0.180931833850158,1
171,986,42,0.171792784882014,1
171,987,42,0.154111463484902,1
171,988,42,0.132437645026283,1
171,989,42,0.113392328713662,1
171,990,42,0.0896754172568966,1
171,991,42,0.0728514709956638,1
171,992,42,0.0698744858211352,1
171,993,42,0.0769638146480113,1
171,994,42,0.0848854137040115,1
171,995,42,0.0912262262745975,1
171,996,42,0.0814457423366754,1
171,997,42,0.0729153550445906,1
172,984,42,0.136573523090531,1
172,985,42,0.187056338080025,1
172,986,42,0.186508747368702,1
172,987,42,0.176021983706432,1
172,988,42,0.162609600981554,1
172,989,42,0.154397684733916,1
172,990,42,0.121617924949445,1
172,991,42,0.0826852021876936,1
172,992,42,0.0702658726981033,1
172,993,42,0.0762151603262395,1
172,996,42,0.0813941173519777,1
173,985,42,0.151346011886518,1
173,986,42,0.184529199008506,1
173,987,42,0.204413654307965,1
173,988,42,0.212277219839826,1
173,989,42,0.227265746598297,1
173,990,42,0.181694496065594,1
173,991,42,0.102673845151278,1
173,992,42,0.0722238023049572,1
173,993,42,0.073288793408938,1
174,986,42,0.152341325944069,1
174,987,42,0.194717591659372,1
174,988,42,0.220501159289828,1
174,989,42,0.239643731228847,1
174,990,42,0.197636687127971,1
174,991,42,0.115219153640188,1
174,992,42,0.0773305280728544,1
175,987,42,0.146514778529161,1
175,988,42,0.172195671463062,1
175,989,42,0.169378146167164,1
175,990,42,0.145000200194948,1
175,991,42,0.104829979262565,1
176,988,42,0.125302754590447,1
176,989,42,0.115013136930583,1
176,990,42,0.104284102864306,1
177,988,42,0.0991468128503987,1
177,989,42,0.0948277966774082,1
177,990,42,0.0952853859528497,1
177,991,42,0.0920540899137643,1
177,992,42,0.0820585517299145,1
178,987,42,0.104150869674469,1
178,988,42,0.0980826041174808,1
178,989,42,0.0980221659528681,1
178,990,42,0.100560051121046,1
178,991,42,0.0913095718037151,1
178,992,42,0.0797173350876854,1
179,986,42,0.164221642040387,1
179,987,42,0.122970092255355,1
179,988,42,0.110034541682429,1
179,989,42,0.116389787848581,1
179,990,42,0.120036465394807,1
179,991,42,0.0961338386069745,1
179,992,42,0.0780940589502789,1
180,986,42,0.119810935430456,1
180,987,42,0.124140979583797,1
180,988,42,0.127150116757376,1
180,989,42,0.131777323849155,1
180,990,42,0.125821846285256,1
180,991,42,0.0955298193827368,1
180,992,42,0.080490450010631,1
181,986,42,0.0879526591871993,1
181,987,42,0.130373266933041,1
181,988,42,0.144960575401702,1
181,989,42,0.130940543480962,1
181,990,42,0.104704489245159,1
182,986,42,0.0646517792958844,1
182,987,42,0.0909962667093749,1
182,988,42,0.099478572697459,1
182,989,42,0.0896320474374586,1
183,986,42,0.049472992550907,1
183,987,42,0.0559961723646291,1
183,988,42,0.0610456930012766,1
162,993,43,0.074555147265245,1
162,994,43,0.083324485637048,1
163,992,43,0.0631592799332868,1
163,993,43,0.070539133050023,1
163,994,43,0.0775392255538957,1
163,995,43,0.0741292727814948,1
164,991,43,0.0624935454387307,1
164,992,43,0.0614282724510581,1
164,993,43,0.0660402060489249,1
164,994,43,0.0721122626539315,1
164,995,43,0.0712806309776601,1
164,996,43,0.0695670945315944,1
165,992,43,0.0624578094898849,1
165,993,43,0.0646162677034464,1
165,994,43,0.0702878596260634,1
165,995,43,0.0733367941747412,1
165,996,43,0.0755128960063179,1
166,991,43,0.0674992820594952,1
166,992,43,0.0643285334868622,1
166,993,43,0.064343766711676,1
166,994,43,0.0671950490178482,1
166,995,43,0.0715737209843885,1
166,996,43,0.0765981999942933,1
167,990,43,0.0792334903598079,1
167,991,43,0.0713958811385064,1
167,992,43,0.067603947200078,1
167,993,43,0.0681709878861346,1
167,994,43,0.0673384300205902,1
167,995,43,0.069931621919644,1
167,996,43,0.0763014915213988,1
167,997,43,0.0790682604945874,1
168,989,43,0.0971246022563581,1
168,990,43,0.0863250454925762,1
168,991,43,0.0753153875820224,1
168,992,43,0.0735350849700996,1
168,993,43,0.078580716762346,1
168,994,43,0.0758437469222903,1
168,995,43,0.0732642695277516,1
168,996,43,0.0762392815164376,1
168,997,43,0.0774443918261553,1
168,998,43,0.0751453771994982,1
169,989,43,0.103606304898287,1
169,990,43,0.0880753073567732,1
169,991,43,0.0750474772675184,1
169,992,43,0.0738561562477852,1
169,993,43,0.0826088749872289,1
169,994,43,0.0874852442516437,1
169,995,43,0.0885082864601023,1
169,996,43,0.0824833619589099,1
169,997,43,0.0772675011804599,1
169,998,43,0.0782831338747341,1
170,985,43,0.165466589994302,1
170,986,43,0.159639524833838,1
170,989,43,0.105878321970544,1
170,990,43,0.0854526212191918,1
170,991,43,0.0729688956878468,1
170,992,43,0.0724580534055692,1
170,993,43,0.0832343518884136,1
170,994,43,0.101036710691147,1
170,995,43,0.111870870116279,1
170,996,43,0.0947237873478633,1
170,997,43,0.0798159080888884,1
170,998,43,0.0873037054013978,1
171,984,43,0.142310627084213,1
171,985,43,0.185718472056927,1
171,986,43,0.196279618497461,1
171,987,43,0.16250054075647,1
171,988,43,0.139703582615163,1
171,989,43,0.119655657785374,1
171,990,43,0.091978010080621,1
171,991,43,0.0747569472249298,1
171,992,43,0.0734451238033174,1
171,993,43,0.0837368872308759,1
171,994,43,0.101441173519777,1
171,995,43,0.112064368888877,1
171,996,43,0.0941334078426716,1
171,997,43,0.0791225029707089,1
172,984,43,0.130666598554362,1
172,985,43,0.187280636960498,1
172,986,43,0.213533776799661,1
172,987,43,0.19211722035527,1
172,988,43,0.174417789369142,1
172,989,43,0.159030782619581,1
172,990,43,0.123517441352084,1
172,991,43,0.0860945049017848,1
172,992,43,0.0770776381322133,1
172,993,43,0.081650171293241,1
172,996,43,0.0891694015137499,1
173,985,43,0.166043013380386,1
173,986,43,0.221953539124536,1
173,987,43,0.233738164336582,1
173,988,43,0.22398554086232,1
173,989,43,0.219200030190319,1
173,990,43,0.176847316145101,1
173,991,43,0.105930073515267,1
173,992,43,0.0807872907962789,1
173,993,43,0.0786357933840862,1
174,986,43,0.173482568312499,1
174,987,43,0.222265083883984,1
174,988,43,0.239826552937527,1
174,989,43,0.235561503109695,1
174,990,43,0.193728329472102,1
174,991,43,0.118292031044484,1
174,992,43,0.0836388319752292,1
175,987,43,0.164180302934076,1
175,988,43,0.19711392519244,1
175,989,43,0.180442828924903,1
175,990,43,0.15051616930878,1
175,991,43,0.112258132286981,1
176,988,43,0.140481627626351,1
176,989,43,0.124619422499703,1
176,990,43,0.110801760058761,1
176,991,43,0.0992946924867526,1
176,992,43,0.0856829144426619,1
177,987,43,0.0970501159289828,1
177,988,43,0.104141147563466,1
177,989,43,0.102018448309664,1
177,990,43,0.100844765155218,1
177,991,43,0.0939883067741368,1
177,992,43,0.0841206114736097,1
177,993,43,0.0816685627659486,1
178,986,43,0.116334204986741,1
178,987,43,0.10255110493805,1
178,988,43,0.107317424508096,1
178,989,43,0.117007596362803,1
178,990,43,0.113265550085094,1
178,991,43,0.0927584309686398,1
178,992,43,0.0804571474659001,1
178,993,43,0.0804969908628264,1
179,985,43,0.14396497370773,1
179,986,43,0.137810451741052,1
179,987,43,0.119505281464893,1
179,988,43,0.126345896831949,1
179,989,43,0.142616073951554,1
179,990,43,0.140359209565913,1
179,991,43,0.104837480820404,1
179,992,43,0.0816049893643557,1
180,985,43,0.101125141632173,1
180,986,43,0.108203816406045,1
180,987,43,0.119842149734776,1
180,988,43,0.126522125913878,1
180,989,43,0.127641031588462,1
180,990,43,0.130874352587945,1
181,985,43,0.0691101955835614,1
181,986,43,0.0846060497072552,1
181,987,43,0.12170373264632,1
181,988,43,0.129228496991553,1
181,989,43,0.10714197779723,1
182,985,43,0.0548525874851925,1
182,986,43,0.0619106157168222,1
182,987,43,0.0845718785005352,1
182,988,43,0.091071431858702,1
183,986,43,0.0472204053188346,1
183,987,43,0.0535874244436651,1
163,992,44,0.0618999674165463,1
163,993,44,0.0681628592808997,1
163,994,44,0.0750444110632791,1
164,991,44,0.0611112913632678,1
164,992,44,0.0608148245049662,1
164,993,44,0.0660957313834806,1
164,994,44,0.072285793706239,1
164,995,44,0.0682539077133503,1
165,991,44,0.0622805391641148,1
165,992,44,0.0608907777780846,1
165,993,44,0.0636970507372236,1
165,994,44,0.0691822427540934,1
165,995,44,0.0686268340848698,1
165,996,44,0.0722201435696922,1
166,991,44,0.067396676395681,1
166,992,44,0.0640569586843648,1
166,993,44,0.0639476625974167,1
166,994,44,0.0677041884925182,1
166,995,44,0.0714097106975897,1
166,996,44,0.0791980938219379,1
166,997,44,0.0837631369305834,1
167,990,44,0.0811367000140827,1
167,991,44,0.0754295159608299,1
167,992,44,0.0738083510747477,1
167,993,44,0.0705769629920078,1
167,994,44,0.0691475710600023,1
167,995,44,0.073335937018209,1
167,996,44,0.0825694055176489,1
167,997,44,0.085789305401766,1
167,998,44,0.0816274307578598,1
168,990,44,0.0880183150764745,1
168,991,44,0.0836216313173012,1
168,992,44,0.0877816305717476,1
168,993,44,0.0863500641084053,1
168,994,44,0.0787451757619604,1
168,995,44,0.076148060502135,1
168,996,44,0.0809265758563972,1
168,997,44,0.0840520734674041,1
168,998,44,0.0812806562896651,1
169,985,44,0.140947391528854,1
169,986,44,0.141744811729307,1
169,989,44,0.102133215241325,1
169,990,44,0.0885784870048166,1
169,991,44,0.0821525628174931,1
169,992,44,0.0865674884784356,1
169,993,44,0.0942720888663075,1
169,994,44,0.0987482983429381,1
169,995,44,0.0952115726946976,1
169,996,44,0.0833700127296374,1
169,997,44,0.0809819055981871,1
169,998,44,0.0847664817969867,1
170,984,44,0.153311673160346,1
170,985,44,0.182657963018701,1
170,986,44,0.185211323026285,1
170,987,44,0.140572980953407,1
170,989,44,0.105351395059649,1
170,990,44,0.08690921780382,1
170,991,44,0.0769717073913816,1
170,992,44,0.0772095366890609,1
170,993,44,0.0924980624810735,1
170,994,44,0.122139133648307,1
170,995,44,0.131371342300226,1
170,996,44,0.100172869488541,1
170,997,44,0.0833434466298676,1
171,984,44,0.143059528773307,1
171,985,44,0.196250670768132,1
171,986,44,0.221707759556202,1
171,987,44,0.170860382662289,1
171,988,44,0.144170185035359,1
171,989,44,0.123857991368146,1
171,990,44,0.0940890715648618,1
171,991,44,0.0776497527247223,1
171,992,44,0.0754627322146348,1
171,993,44,0.0862952923812706,1
171,994,44,0.113904033905201,1
171,996,44,0.105158172418014,1
172,984,44,0.129115893085773,1
172,985,44,0.188182170039606,1
172,986,44,0.242745234209681,1
172,987,44,0.208905798842275,1
172,988,44,0.182912176086874,1
172,989,44,0.158929339006904,1
172,990,44,0.119464908816954,1
172,991,44,0.0921557636355771,1
172,992,44,0.0848319651044097,1
173,985,44,0.165561487002055,1
173,986,44,0.245283153894229,1
173,987,44,0.247819531847565,1
173,988,44,0.226026815998292,1
173,989,44,0.205791317706162,1
173,990,44,0.161373201582046,1
173,991,44,0.114262486412056,1
173,992,44,0.0933814054329687,1
174,986,44,0.177054586949498,1
174,987,44,0.225548396093299,1
174,988,44,0.241185784593917,1
174,989,44,0.225353907851416,1
174,990,44,0.177553187425732,1
174,991,44,0.123670486938545,1
174,992,44,0.0928476903025567,1
175,987,44,0.160823160208424,1
175,988,44,0.200241476527487,1
175,989,44,0.186786040383233,1
175,990,44,0.150303778576103,1
175,991,44,0.117802784504635,1
175,992,44,0.0924872531044024,1
176,988,44,0.138669690760934,1
176,989,44,0.130249548755984,1
176,990,44,0.114395017769027,1
176,991,44,0.101170277539231,1
176,992,44,0.0880041806227858,1
176,993,44,0.0839212564234965,1
177,987,44,0.0966644069949496,1
177,988,44,0.101050459712032,1
177,989,44,0.10329597971726,1
177,990,44,0.0994724517944371,1
177,991,44,0.0905220405433889,1
177,992,44,0.0838247313936054,1
177,993,44,0.08248134275124,1
178,986,44,0.106668229107701,1
178,987,44,0.098559608851286,1
178,988,44,0.109896683298955,1
178,989,44,0.127291093119645,1
178,990,44,0.115403850738328,1
178,991,44,0.0898548103394478,1
178,992,44,0.0801891048386429,1
179,985,44,0.110415556390085,1
179,986,44,0.112641310020517,1
179,987,44,0.113558030302612,1
179,988,44,0.136612791214617,1
179,989,44,0.161848607057355,1
179,990,44,0.146428786744977,1
179,991,44,0.106463075307357,1
180,985,44,0.0851023088230286,1
180,986,44,0.0971042951250919,1
180,987,44,0.111047044892452,1
180,988,44,0.1212640516144,1
180,989,44,0.124707301178803,1
181,985,44,0.0625161881777289,1
181,986,44,0.0792198966625891,1
181,987,44,0.103105000639703,1
181,988,44,0.107224264824321,1
182,985,44,0.0491331040986119,1
182,986,44,0.0586042178084222,1
182,987,44,0.0745085904342712,1
163,992,45,0.0616375739685818,1
163,993,45,0.0658091074434783,1
164,991,45,0.0610710395226248,1
164,992,45,0.0607367484750668,1
164,993,45,0.0647218302696603,1
164,994,45,0.0688324135871161,1
164,995,45,0.0664592405386027,1
165,991,45,0.0618326087196636,1
165,992,45,0.0603501593735877,1
165,993,45,0.063353808444269,1
165,994,45,0.0671349617696681,1
165,995,45,0.0676123059144491,1
165,996,45,0.073034821955357,1
166,991,45,0.0697259963955705,1
166,992,45,0.0650679719377306,1
166,993,45,0.0646862036226541,1
166,994,45,0.0681875557439382,1
166,995,45,0.0728660023876124,1
166,996,45,0.0833619243935013,1
166,997,45,0.0885181408838584,1
167,990,45,0.0882798916370056,1
167,991,45,0.0856319222580886,1
167,992,45,0.0831172493490213,1
167,993,45,0.0734880103935695,1
167,994,45,0.0719493223746158,1
167,995,45,0.0779819785427833,1
167,996,45,0.0897157783993793,1
167,997,45,0.092905033499288,1
167,998,45,0.0874431572906398,1
168,989,45,0.0973748919637606,1
168,990,45,0.0921100409502219,1
168,991,45,0.0994595426718984,1
168,992,45,0.105314117379591,1
168,993,45,0.0898951887401157,1
168,994,45,0.0800300188873579,1
168,995,45,0.0788169985760847,1
168,996,45,0.0850702143512625,1
168,997,45,0.0895656897153182,1
168,998,45,0.0900170430331698,1
169,985,45,0.150067767140599,1
169,986,45,0.157168543896999,1
169,989,45,0.0957915512669349,1
169,990,45,0.0885777794192229,1
169,991,45,0.0925000356669161,1
169,992,45,0.100133750935394,1
169,993,45,0.0993481928609101,1
169,994,45,0.104314879961268,1
169,995,45,0.0975082517136227,1
169,996,45,0.0834912169643819,1
169,997,45,0.0825506458703234,1
170,984,45,0.148477459889676,1
170,985,45,0.193043501671973,1
170,986,45,0.203045655493487,1
170,987,45,0.146733301670316,1
170,989,45,0.1000618533358,1
170,990,45,0.0885463580166801,1
170,991,45,0.0834619758459042,1
170,992,45,0.0828081610046013,1
170,993,45,0.097392012083491,1
170,994,45,0.134441021187529,1
170,995,45,0.140732918308495,1
170,996,45,0.103468688129406,1
171,984,45,0.143085657665718,1
171,985,45,0.197616690644039,1
171,986,45,0.232709024236015,1
171,987,45,0.176819070248638,1
171,988,45,0.142108096528021,1
171,989,45,0.122118642429732,1
171,990,45,0.0989611147775167,1
171,991,45,0.0867695070417998,1
171,992,45,0.0794342203120096,1
172,984,45,0.130321055170046,1
172,985,45,0.186666372126972,1
172,986,45,0.261053821606512,1
172,987,45,0.227244806666906,1
172,988,45,0.185281023083628,1
172,989,45,0.153077732707068,1
172,990,45,0.117318991551313,1
172,991,45,0.102749021806062,1
172,992,45,0.0917101170243023,1
173,985,45,0.152256898902011,1
173,986,45,0.239379519918707,1
173,987,45,0.246139712142675,1
173,988,45,0.2186950326801,1
173,989,45,0.189847941581733,1
173,990,45,0.147190309920189,1
173,991,45,0.123740888828754,1
173,992,45,0.104141630792652,1
174,986,45,0.161295792868642,1
174,987,45,0.207887289783799,1
174,988,45,0.223995389533348,1
174,989,45,0.210062994677115,1
174,990,45,0.162057131956544,1
174,991,45,0.127329555861754,1
175,987,45,0.14622749877812,1
175,988,45,0.185902444311288,1
175,989,45,0.189104079282722,1
175,990,45,0.152821920380398,1
175,991,45,0.122271584467081,1
175,992,45,0.100376435535846,1
176,988,45,0.129143540698482,1
176,989,45,0.134716381285316,1
176,990,45,0.119039356485994,1
176,991,45,0.104924669172095,1
176,992,45,0.0960910383076485,1
176,993,45,0.0934276688747939,1
177,987,45,0.0941421232262037,1
177,988,45,0.0963764484219576,1
177,989,45,0.101638986838678,1
177,990,45,0.0965248458038679,1
177,991,45,0.0909776623857163,1
177,992,45,0.0887023029782565,1
177,993,45,0.0876696479606348,1
178,986,45,0.0940762832496196,1
178,987,45,0.0927695624981016,1
178,988,45,0.105631345834702,1
178,989,45,0.123547528121638,1
178,990,45,0.107325271229639,1
178,991,45,0.0892279010088905,1
179,985,45,0.0865374649888949,1
179,986,45,0.0923660488696579,1
179,987,45,0.10351863331741,1
179,988,45,0.131801140144748,1
179,989,45,0.157830383794426,1
179,990,45,0.1308356597367,1
180,985,45,0.0735835977287308,1
180,986,45,0.0843776031096028,1
180,987,45,0.0965625491858279,1
180,988,45,0.107660781855618,1
180,989,45,0.115965995852513,1
181,985,45,0.0601062609474422,1
181,986,45,0.0724619710136123,1
181,987,45,0.0838718865083332,1
181,988,45,0.0861240566675963,1
182,985,45,0.0486865888253481,1
182,986,45,0.0564207639899452,1
182,987,45,0.0651587154755758,1
163,992,46,0.0651152593652117,1
163,993,46,0.0640802687398579,1
164,991,46,0.0621437220244818,1
164,992,46,0.0624393835008068,1
164,993,46,0.0633766122596625,1
164,994,46,0.0644407864762099,1
165,991,46,0.0614681043425276,1
165,992,46,0.0606007137064967,1
165,993,46,0.0631511455753235,1
165,994,46,0.0646252362070283,1
165,995,46,0.0669866334204987,1
166,991,46,0.0714732840991826,1
166,992,46,0.066127503702456,1
166,993,46,0.0664761478073821,1
166,994,46,0.0686390068581727,1
166,995,46,0.0747852621541345,1
166,996,46,0.0868185317932589,1
167,990,46,0.0935216684569157,1
167,991,46,0.0949631181076561,1
167,992,46,0.0888291276286517,1
167,993,46,0.0758916383862538,1
167,994,46,0.0743264417948144,1
167,995,46,0.0822856291782066,1
167,996,46,0.0946096359581422,1
167,997,46,0.0994256591015987,1
168,989,46,0.0906024866973908,1
168,990,46,0.0940427793593946,1
168,991,46,0.114506609194609,1
168,992,46,0.115875620489286,1
168,993,46,0.090900086843188,1
168,994,46,0.0812635821917619,1
168,995,46,0.0828802657024173,1
168,996,46,0.088360970591132,1
168,997,46,0.0947175974121006,1
169,986,46,0.159133687425272,1
169,989,46,0.0852679126155953,1
169,990,46,0.0852715771035887,1
169,991,46,0.0994218392899384,1
169,992,46,0.105880105316349,1
169,993,46,0.0986150421421872,1
169,994,46,0.102878446689696,1
169,995,46,0.09830767386356,1
169,996,46,0.0868896067526907,1
170,985,46,0.179890992700018,1
170,986,46,0.19288375990965,1
170,987,46,0.144361060563804,1
170,989,46,0.0930831724870472,1
170,990,46,0.0888635001808658,1
170,991,46,0.088195263249454,1
170,992,46,0.0866045187911723,1
170,993,46,0.0978286901911839,1
171,984,46,0.140493294159554,1
171,985,46,0.179900231581835,1
171,986,46,0.216526369126349,1
171,987,46,0.178683932215371,1
171,988,46,0.13664666327946,1
171,990,46,0.1038606675374,1
171,991,46,0.0954400423032636,1
171,992,46,0.0825708091833795,1
172,985,46,0.172380771252189,1
172,986,46,0.253969129478729,1
172,987,46,0.243865083331723,1
172,988,46,0.185886267639016,1
172,989,46,0.146268032502455,1
172,990,46,0.121130519282685,1
172,991,46,0.114535073694752,1
173,985,46,0.13341931361206,1
173,986,46,0.209670543545393,1
173,987,46,0.231775816634313,1
173,988,46,0.20395214742448,1
173,989,46,0.173892392684002,1
173,990,46,0.141281809136437,1
173,991,46,0.129960094473607,1
174,986,46,0.138298927415295,1
174,987,46,0.177029608602768,1
174,988,46,0.192989253443123,1
174,989,46,0.191607724211439,1
174,990,46,0.157920045819331,1
174,991,46,0.128311270469358,1
175,988,46,0.15780683212434,1
175,989,46,0.179268478453961,1
175,990,46,0.156603867582317,1
175,991,46,0.122081859484316,1
176,988,46,0.114516124207389,1
176,989,46,0.127749297937026,1
176,990,46,0.118177287123737,1
176,991,46,0.104804839839439,1
176,992,46,0.0996804014207859,1
177,987,46,0.0933128559213064,1
177,988,46,0.0931550125593567,1
177,989,46,0.0946953286004486,1
177,990,46,0.0898926805505315,1
177,991,46,0.0894570149230377,1
177,992,46,0.0892321522751811,1
177,993,46,0.0889050291272145,1
178,986,46,0.0842827291127636,1
178,987,46,0.0903827094614434,1
178,988,46,0.10045352209646,1
178,989,46,0.109846945209174,1
178,990,46,0.0942060072751305,1
178,991,46,0.0871047818059149,1
179,985,46,0.0688080162659546,1
179,986,46,0.0772995553831271,1
179,987,46,0.0927097398754281,1
179,988,46,0.117876902657392,1
179,989,46,0.137019520618239,1
179,990,46,0.10766499285281,1
180,985,46,0.0612154675219363,1
180,986,46,0.0700526363143512,1
180,987,46,0.0812723205862076,1
180,988,46,0.0940249976758977,1
180,989,46,0.106595928817119,1
181,985,46,0.0536501061723554,1
181,986,46,0.0617009862937794,1
181,987,46,0.0676449929172408,1
181,988,46,0.0716398543501212,1
182,986,46,0.0505790868993346,1
182,987,46,0.0555439503847885,1
163,992,47,0.0649954070216422,1
163,993,47,0.0613218182119416,1
164,991,47,0.0614505527681669,1
164,992,47,0.0620180191561254,1
164,993,47,0.0614157487613225,1
164,994,47,0.0625265085724858,1
165,991,47,0.0608913588036534,1
165,992,47,0.0613682484828905,1
165,993,47,0.0637410188404156,1
165,994,47,0.0652841249547836,1
166,991,47,0.0708950716145654,1
166,992,47,0.0664704065844349,1
166,993,47,0.0679622328778093,1
166,994,47,0.070539403428258,1
166,995,47,0.0779029820763392,1
167,990,47,0.0946051775936291,1
167,991,47,0.0952410726859535,1
167,992,47,0.0855927231667435,1
167,993,47,0.0756241480209234,1
167,994,47,0.0769855657141069,1
167,995,47,0.086973262929142,1
167,996,47,0.0996208951981746,1
168,989,47,0.0865591642804349,1
168,990,47,0.0935744842563931,1
168,991,47,0.114831316196646,1
168,992,47,0.108041186774063,1
168,993,47,0.0860468608051427,1
168,994,47,0.0821099696163897,1
168,995,47,0.0896326399684843,1
168,996,47,0.0945797850504537,1
169,988,47,0.0987711136637885,1
169,989,47,0.0811596131313159,1
169,990,47,0.0844846901488438,1
169,991,47,0.0998668243374468,1
169,992,47,0.0997296217650107,1
169,993,47,0.0904585361745369,1
170,986,47,0.175483528327815,1
170,989,47,0.0886679074151289,1
170,990,47,0.0889720196494794,1
170,991,47,0.0908114660621239,1
170,992,47,0.0877760561779241,1
170,993,47,0.0914972775788101,1
171,985,47,0.162414664026855,1
171,986,47,0.188654492052491,1
171,987,47,0.175253844893556,1
171,989,47,0.107677775415324,1
171,990,47,0.104070078356763,1
171,991,47,0.0986392151069409,1
171,992,47,0.0850883009293648,1
172,985,47,0.152195989013669,1
172,986,47,0.217075823721675,1
172,987,47,0.233297735449969,1
172,988,47,0.17342294703532,1
172,989,47,0.131924662729039,1
172,990,47,0.120193917571226,1
172,991,47,0.115294341800429,1
172,992,47,0.0932925487900401,1
173,986,47,0.169193046378036,1
173,987,47,0.198521939985696,1
173,988,47,0.174858045673902,1
173,989,47,0.148634843033354,1
173,990,47,0.131894587464943,1
173,991,47,0.122810615118538,1
173,992,47,0.103369246466214,1
174,987,47,0.140723598888481,1
174,988,47,0.152360471024197,1
174,989,47,0.159708051334587,1
174,990,47,0.148290035998273,1
174,991,47,0.120842698775175,1
174,992,47,0.102861786788238,1
175,988,47,0.125372397120506,1
175,989,47,0.151301750394177,1
175,990,47,0.149384412038942,1
175,991,47,0.117888557685139,1
175,992,47,0.104343045319534,1
176,987,47,0.0956907692180247,1
176,988,47,0.100709495499526,1
176,989,47,0.110982591323413,1
176,990,47,0.110665823086573,1
176,991,47,0.102340681638488,1
176,992,47,0.100112718960349,1
176,993,47,0.102824014373537,1
177,986,47,0.0892648852998,1
177,987,47,0.0954279730790719,1
177,988,47,0.0933245282072381,1
177,989,47,0.0877524469805539,1
177,990,47,0.0850767494507295,1
177,991,47,0.089541395943268,1
177,992,47,0.0888292771995902,1
178,987,47,0.0905299735558581,1
178,988,47,0.0961102351623328,1
178,989,47,0.0937586521035197,1
178,990,47,0.0826662757112443,1
178,991,47,0.085120268841106,1
179,986,47,0.0695855492843146,1
179,987,47,0.0860881884059972,1
179,988,47,0.102329601883581,1
179,989,47,0.109277701228138,1
179,990,47,0.0874671576735414,1
180,985,47,0.0538594594644348,1
180,986,47,0.0618990642381869,1
180,987,47,0.0734114530839687,1
180,988,47,0.0852769386464612,1
180,989,47,0.0958650251141111,1
181,985,47,0.0486099452248212,1
181,986,47,0.0548495960664224,1
181,987,47,0.0609534134849476,1
181,988,47,0.066498088713515,1
182,987,47,0.0509851662446465,1
163,992,48,0.0627848348414686,1
163,993,48,0.0588591959894739,1
163,994,48,0.0580166859037905,1
164,991,48,0.0606337688839063,1
164,992,48,0.061251301267165,1
164,993,48,0.060122034928726,1
164,994,48,0.0609401994678036,1
164,995,48,0.0648213467183216,1
165,991,48,0.0612379894536381,1
165,992,48,0.0626570724963436,1
165,993,48,0.0643709080842862,1
165,994,48,0.0659631885210518,1
165,995,48,0.0713096419870016,1
166,991,48,0.0713700398825155,1
166,992,48,0.0688801784910547,1
166,993,48,0.0698382896540171,1
166,994,48,0.0720588658288853,1
166,995,48,0.0800275682250578,1
167,990,48,0.0935648369308596,1
167,991,48,0.0925168451393127,1
167,992,48,0.0837958124279183,1
167,993,48,0.0773652055196739,1
167,994,48,0.0794371887198661,1
168,989,48,0.0855353166899997,1
168,990,48,0.0947384107834664,1
168,991,48,0.109736826482064,1
168,992,48,0.100440647490292,1
168,993,48,0.0857631592511696,1
168,994,48,0.0857575273300621,1
169,989,48,0.0800394821255825,1
169,990,48,0.0879761245663593,1
169,991,48,0.102625821374562,1
169,992,48,0.0987906039076213,1
169,993,48,0.0884227491414628,1
169,994,48,0.0881318106551575,1
170,988,48,0.104480052299204,1
170,989,48,0.086514626657131,1
170,990,48,0.0901774233483457,1
170,991,48,0.0978544163926067,1
170,992,48,0.0960368706169962,1
170,993,48,0.0913090080363315,1
171,986,48,0.166828916618574,1
171,987,48,0.167420343120335,1
171,988,48,0.128166060098984,1
171,989,48,0.102482129724486,1
171,990,48,0.101408440495158,1
171,991,48,0.100471769750957,1
171,992,48,0.0923039078974376,1
171,993,48,0.0896267549273269,1
172,986,48,0.176168103007895,1
172,987,48,0.203082104780655,1
172,988,48,0.161651150407615,1
172,989,48,0.124026718892236,1
172,990,48,0.118115479809764,1
172,991,48,0.110576391170804,1
172,992,48,0.0910770810379947,1
172,993,48,0.0809309939518115,1
173,987,48,0.168066972803861,1
173,988,48,0.154704155586912,1
173,989,48,0.132950247643452,1
173,990,48,0.125736257192061,1
173,991,48,0.113553151988925,1
173,992,48,0.0963565439816796,1
174,986,48,0.11174211254914,1
174,987,48,0.11884508684779,1
174,988,48,0.125759406171159,1
174,989,48,0.134491714230225,1
174,990,48,0.136779804425643,1
174,991,48,0.114549835195837,1
174,992,48,0.101561773718039,1
175,987,48,0.100756564323327,1
175,988,48,0.103941619931501,1
175,989,48,0.123594746516378,1
175,990,48,0.133878174240479,1
175,991,48,0.112625605071974,1
175,992,48,0.104440289440476,1
175,993,48,0.107493630579111,1
176,987,48,0.0937593481836565,1
176,988,48,0.0908820405341846,1
176,989,48,0.0951214216878781,1
176,990,48,0.101253772639287,1
176,991,48,0.0977586219592228,1
176,992,48,0.0965279407717492,1
176,993,48,0.101742996168223,1
176,994,48,0.101699620596056,1
177,987,48,0.0962815053923775,1
177,988,48,0.0922855854574708,1
177,989,48,0.0810443917341117,1
177,990,48,0.0805119249457633,1
177,991,48,0.0859566120019403,1
177,992,48,0.0850849355832484,1
178,986,48,0.069850376136394,1
178,987,48,0.0890626768963984,1
178,988,48,0.0900692720543499,1
178,989,48,0.079235158651045,1
178,990,48,0.073433854208374,1
178,991,48,0.0797614412563591,1
179,986,48,0.0625758037021799,1
179,987,48,0.0807913292116185,1
179,988,48,0.0892379165090419,1
179,989,48,0.0851699666617883,1
179,990,48,0.0745054897136614,1
180,986,48,0.0549256989104793,1
180,987,48,0.0683849318554804,1
180,988,48,0.0786305353903249,1
180,989,48,0.0822413159113104,1
181,986,48,0.0490708940936507,1
181,987,48,0.057100535141807,1
181,988,48,0.064223195277056,1
182,987,48,0.0474623248064092,1
163,993,49,0.0570707417614026,1
164,992,49,0.0601265105514243,1
164,993,49,0.0597982138468633,1
164,994,49,0.061375048207864,1
165,992,49,0.0655364338698558,1
165,993,49,0.065823241897167,1
165,994,49,0.0680671396329851,1
165,995,49,0.0730529603080149,1
166,991,49,0.0738950849608953,1
166,992,49,0.072268892190188,1
166,993,49,0.0723868288751989,1
166,994,49,0.0746111500762582,1
167,991,49,0.0845709983330894,1
167,992,49,0.0787816192963999,1
167,993,49,0.0786889025727122,1
167,994,49,0.0826416195173047,1
168,990,49,0.0918292790404633,1
168,991,49,0.0986829013264411,1
168,992,49,0.0886321657135546,1
168,993,49,0.0836238461177367,1
168,994,49,0.0883020108777191,1
169,989,49,0.0801544619081938,1
169,990,49,0.0921192107992979,1
169,991,49,0.109105107870561,1
169,992,49,0.0997985624622046,1
169,993,49,0.0875493238933361,1
170,989,49,0.0831697947702636,1
170,990,49,0.0898635890029923,1
170,991,49,0.107239210412715,1
170,992,49,0.106557224460417,1
170,993,49,0.0945077321271933,1
171,988,49,0.120734720063032,1
171,989,49,0.09853227188591,1
171,990,49,0.0965927164935786,1
171,991,49,0.0999444171381603,1
171,992,49,0.0989468365056179,1
171,993,49,0.0945630791271684,1
171,994,49,0.0982991483200652,1
172,987,49,0.155927737907535,1
172,988,49,0.145794421878408,1
172,989,49,0.123505878367992,1
172,990,49,0.115995771974732,1
172,991,49,0.102857184605515,1
172,992,49,0.087730264459828,1
172,993,49,0.0815469903565863,1
172,995,49,0.11960182375297,1
173,986,49,0.117521315009283,1
173,987,49,0.13750677671406,1
173,988,49,0.143557381394848,1
173,989,49,0.132494493488372,1
173,990,49,0.124467423909812,1
173,991,49,0.108555676286149,1
173,992,49,0.0912644589075707,1
173,993,49,0.0797220120558779,1
173,994,49,0.0829940374120638,1
173,995,49,0.0971897346473485,1
174,986,49,0.107491559596886,1
174,987,49,0.106124734339002,1
174,988,49,0.11172801836455,1
174,989,49,0.116523849431308,1
174,990,49,0.118340676115868,1
174,991,49,0.107493895204618,1
174,992,49,0.100196720300504,1
174,1001,49,0.112332020330602,1
175,986,49,0.119356999137551,1
175,987,49,0.0970481600013254,1
175,988,49,0.0902388509822439,1
175,989,49,0.0997804413677319,1
175,990,49,0.109018000057067,1
175,991,49,0.102085847275646,1
175,992,49,0.101326556159055,1
175,993,49,0.107508679716616,1
175,994,49,0.106775114801448,1
175,995,49,0.0999137320848532,1
176,986,49,0.0959074169697204,1
176,987,49,0.0894775694216253,1
176,988,49,0.0824718392439166,1
176,989,49,0.0834197047975914,1
176,990,49,0.0888807411078927,1
176,991,49,0.088346790115616,1
176,992,49,0.0891127313862419,1
176,993,49,0.0964869640873273,1
176,994,49,0.0979196063108811,1
176,995,49,0.093729767654203,1
176,996,49,0.0941645703724362,1
177,987,49,0.0905823579007052,1
177,988,49,0.086229360361032,1
177,989,49,0.0762008475379703,1
177,990,49,0.076263592546673,1
177,991,49,0.0798746491986219,1
177,992,49,0.0793678165680419,1
178,986,49,0.0622903993405993,1
178,987,49,0.0822387789580842,1
178,988,49,0.0805855943857053,1
178,989,49,0.069918166287907,1
178,990,49,0.068549736018799,1
178,991,49,0.0755165777524965,1
179,986,49,0.0556783571312202,1
179,987,49,0.0731210323432197,1
179,988,49,0.0760916089783062,1
179,989,49,0.0684863409517866,1
179,990,49,0.0675515801134162,1
180,986,49,0.04910867226108,1
180,987,49,0.0629831026259134,1
180,988,49,0.0702731268886207,1
180,989,49,0.0687865988581064,1
181,987,49,0.0530292257011655,1
181,988,49,0.0596178715641254,1
164,993,50,0.0597889864705032,1
165,993,50,0.0674722902578235,1
165,994,50,0.070501815100866,1
166,992,50,0.0768840358105042,1
166,993,50,0.077059465263185,1
167,992,50,0.0777807365977536,1
167,993,50,0.0836844453587448,1
168,991,50,0.0916354235987044,1
168,992,50,0.0822251219808531,1
168,993,50,0.0852181227512585,1
169,990,50,0.0940661987167274,1
169,991,50,0.11290038989692,1
169,992,50,0.0994521216522572,1
170,990,50,0.0895420920234049,1
170,991,50,0.111802527702839,1
170,992,50,0.110843731965196,1
170,993,50,0.0971289052972044,1
171,989,50,0.0978763112769124,1
171,990,50,0.093925147568989,1
171,991,50,0.0981158203712857,1
171,992,50,0.100867016708685,1
171,993,50,0.0974576392091241,1
171,995,50,0.119593815955031,1
172,988,50,0.128093610237463,1
172,989,50,0.124249107866879,1
172,990,50,0.115538268990217,1
172,991,50,0.100687520077022,1
172,992,50,0.0878281356281657,1
172,993,50,0.0845048707200851,1
172,994,50,0.0914356773630598,1
172,995,50,0.111691994779284,1
172,996,50,0.126550463853997,1
172,1001,50,0.113547100118644,1
173,987,50,0.113708981895934,1
173,988,50,0.132500407293171,1
173,989,50,0.132941630056303,1
173,990,50,0.125037691876503,1
173,991,50,0.112552683486724,1
173,992,50,0.0929660354312843,1
173,993,50,0.0818609915310634,1
173,994,50,0.0860893504571348,1
173,995,50,0.0959913550298636,1
173,996,50,0.0960651682880156,1
173,999,50,0.091524585780544,1
173,1001,50,0.10720707567185,1
173,1002,50,0.100798697306158,1
174,987,50,0.0950077937964418,1
174,988,50,0.101092201509332,1
174,989,50,0.102731452973516,1
174,990,50,0.10467337848995,1
174,991,50,0.107898473087816,1
174,992,50,0.1027624371687,1
174,993,50,0.0970260810297108,1
174,994,50,0.0988172850619592,1
174,995,50,0.0966192710878916,1
174,1000,50,0.111861263059844,1
174,1001,50,0.113814026716591,1
174,1002,50,0.102595780626836,1
175,987,50,0.0895886315961934,1
175,988,50,0.0810400886932654,1
175,989,50,0.0833619071353161,1
175,990,50,0.0898849373780997,1
175,991,50,0.0940629944470063,1
175,992,50,0.0983487713552784,1
175,993,50,0.104907618085105,1
175,994,50,0.10833900552354,1
175,995,50,0.0991608380022477,1
175,1001,50,0.124242768360178,1
176,986,50,0.0896309601717903,1
176,987,50,0.0825307414300454,1
176,988,50,0.0769423627237926,1
176,989,50,0.0767420929898632,1
176,990,50,0.0803513317796365,1
176,991,50,0.080827203225946,1
176,992,50,0.0839820167408999,1
176,993,50,0.0904592955346862,1
176,994,50,0.0937461974465249,1
176,995,50,0.0900603208089533,1
176,996,50,0.0899488847070389,1
177,986,50,0.0683267372549453,1
177,987,50,0.0820283441530649,1
177,988,50,0.0803576770390661,1
177,989,50,0.073474163576301,1
177,990,50,0.0736893271240684,1
177,991,50,0.0744701507030755,1
177,992,50,0.0756551954961199,1
177,993,50,0.0776747310714526,1
178,986,50,0.0563126011904926,1
178,987,50,0.0734439962685502,1
178,988,50,0.0732914971912879,1
178,989,50,0.0651829862367123,1
178,990,50,0.0662598797357611,1
178,991,50,0.0713735260359283,1
179,986,50,0.0502527978969866,1
179,987,50,0.0651901886526742,1
179,988,50,0.0675598180204908,1
179,989,50,0.0607574180282224,1
179,990,50,0.0648120157928502,1
180,987,50,0.0573726679589596,1
180,988,50,0.0636853899567487,1
180,989,50,0.060062873869819,1
181,987,50,0.0486775110199265,1
181,988,50,0.05514222010215,1
169,991,51,0.11300560729943,1
169,992,51,0.0974515873388431,1
170,991,51,0.111992252685604,1
170,992,51,0.109718659365764,1
170,993,51,0.0985875210895023,1
170,995,51,0.107546383098576,1
171,990,51,0.092321626300922,1
171,991,51,0.0960610148181079,1
171,992,51,0.0989173825361893,1
171,993,51,0.0968093872561879,1
171,994,51,0.0943514477546411,1
171,995,51,0.11215472124119,1
171,996,51,0.157244054210031,1
171,1001,51,0.10773037836385,1
172,990,51,0.112807966562381,1
172,991,51,0.0999125930446292,1
172,992,51,0.0876455612868071,1
172,993,51,0.0854482491456048,1
172,994,51,0.0888167247462126,1
172,995,51,0.100192221666892,1
172,996,51,0.118372948922215,1
172,997,51,0.122387628504447,1
172,998,51,0.103493816047075,1
172,999,51,0.0979915959541291,1
172,1000,51,0.0990431947063853,1
172,1001,51,0.10645354878912,1
172,1002,51,0.103480044015276,1
173,988,51,0.121793383165768,1
173,989,51,0.129445236786903,1
173,990,51,0.123041149956601,1
173,991,51,0.116436695595987,1
173,992,51,0.0953033114545567,1
173,993,51,0.084909724734247,1
173,994,51,0.0877915712864297,1
173,995,51,0.0916444553822987,1
173,996,51,0.0918275992437693,1
173,997,51,0.0881942047474276,1
173,998,51,0.0870107477074227,1
173,999,51,0.0922980113508235,1
173,1000,51,0.101626227287078,1
173,1001,51,0.110364357107289,1
173,1002,51,0.101925346153174,1
173,1003,51,0.0884565061517376,1
174,988,51,0.095655148323747,1
174,989,51,0.0968548223051229,1
174,990,51,0.097865127972895,1
174,991,51,0.108907156486178,1
174,992,51,0.102897833384418,1
174,993,51,0.0975008191885247,1
174,994,51,0.100312741326957,1
174,995,51,0.0950331633287035,1
174,996,51,0.0876119308365572,1
174,999,51,0.104924749710293,1
174,1000,51,0.113164612712517,1
174,1001,51,0.114487636696332,1
174,1002,51,0.101491072685953,1
174,1003,51,0.0909688089367025,1
175,987,51,0.0837580860350447,1
175,988,51,0.0775663093992219,1
175,989,51,0.0776099438441664,1
175,990,51,0.0803486279972866,1
175,991,51,0.0886907227359792,1
175,992,51,0.0940112774186541,1
175,993,51,0.0994973265920561,1
175,994,51,0.10445415351593,1
175,995,51,0.0955696972960336,1
175,996,51,0.0873900998765695,1
175,997,51,0.0904651403067447,1
175,1000,51,0.124760559938368,1
175,1001,51,0.118613781144121,1
176,986,51,0.08162256394963,1
176,987,51,0.0756330187281224,1
176,988,51,0.0730388431125114,1
176,989,51,0.073683954075739,1
176,990,51,0.0749778174792741,1
176,991,51,0.0761253199667538,1
176,992,51,0.0797929316916427,1
176,993,51,0.084717192420021,1
176,994,51,0.08869756848278,1
176,995,51,0.086310191947837,1
176,996,51,0.0855382160651154,1
177,986,51,0.0615834753106703,1
177,987,51,0.0718328066135207,1
177,988,51,0.073893571993325,1
177,989,51,0.0717671679824307,1
177,990,51,0.0719779767147963,1
177,991,51,0.071726720549022,1
177,992,51,0.0730489218926753,1
177,993,51,0.0761061403702548,1
177,994,51,0.0793291064586112,1
178,986,51,0.0509225708068823,1
178,987,51,0.0645503874577635,1
178,988,51,0.0681125459182781,1
178,989,51,0.0656760813518636,1
178,990,51,0.0672657730608473,1
178,991,51,0.0700105205897053,1
178,992,51,0.0729186571106945,1
179,987,51,0.0577235268643212,1
179,988,51,0.0619589443881444,1
179,989,51,0.0602351048055072,1
179,990,51,0.06446493643005,1
179,991,51,0.0720921683736162,1
180,987,51,0.0520781156086709,1
180,988,51,0.0580868116630355,1
180,989,51,0.0572565606415811,1
180,990,51,0.0625938039893561,1
181,988,51,0.0510309694681994,1
181,989,51,0.0522496792278642,1
170,991,52,0.106007114054054,1
170,992,52,0.104337223558389,1
170,993,52,0.0985088812922193,1
170,996,52,0.142023508409568,1
171,990,52,0.0942032344600397,1
171,991,52,0.0955048870578338,1
171,992,52,0.0957001979398789,1
171,993,52,0.0949315011123476,1
171,994,52,0.0938366418424931,1
171,995,52,0.108908249504575,1
171,996,52,0.145154223745238,1
171,997,52,0.152819515739925,1
171,998,52,0.126953430973242,1
171,999,52,0.112436167725629,1
171,1000,52,0.0987382770900583,1
171,1001,52,0.0973357503996996,1
171,1002,52,0.101687275240901,1
172,990,52,0.109012166790465,1
172,991,52,0.100522957528297,1
172,992,52,0.089417407387976,1
172,993,52,0.0870589440659916,1
172,994,52,0.0877064596696921,1
172,995,52,0.094426469085758,1
172,996,52,0.110148031508384,1
172,997,52,0.110926916417919,1
172,998,52,0.0977594733630266,1
172,999,52,0.0942457011011182,1
172,1000,52,0.0950227854066627,1
172,1001,52,0.101975314352091,1
172,1002,52,0.100722738280312,1
172,1003,52,0.0889010309809737,1
173,989,52,0.117663315357208,1
173,990,52,0.115277221680699,1
173,991,52,0.114664636643867,1
173,992,52,0.0962374970200867,1
173,993,52,0.08732056664835,1
173,994,52,0.0875912900470435,1
173,995,52,0.088022267200888,1
173,996,52,0.0880459914528263,1
173,997,52,0.0859962367951872,1
173,998,52,0.0861559497938682,1
173,999,52,0.0933464000806302,1
173,1000,52,0.104239024484533,1
173,1001,52,0.111037575901499,1
173,1002,52,0.10049201935494,1
173,1003,52,0.0862011087118398,1
173,1004,52,0.0839630845117222,1
174,988,52,0.0890028715319102,1
174,989,52,0.0907269412236836,1
174,990,52,0.0926254163824819,1
174,991,52,0.104605369734758,1
174,992,52,0.098632495920165,1
174,993,52,0.0935887740337487,1
174,994,52,0.095345432931931,1
174,995,52,0.0903383559254483,1
174,996,52,0.0835753793809328,1
174,997,52,0.0831763758915579,1
174,998,52,0.0925656282761788,1
174,999,52,0.104441278909761,1
174,1000,52,0.111278062959701,1
175,987,52,0.077289614668445,1
175,988,52,0.0732768967665985,1
175,989,52,0.0729640173741602,1
175,990,52,0.0743617405363016,1
175,991,52,0.0826084838016975,1
175,992,52,0.0870339829774466,1
175,993,52,0.0903795799771916,1
175,994,52,0.0948776958435847,1
175,995,52,0.089138106671232,1
175,996,52,0.0823829883537164,1
175,997,52,0.0872378596720853,1
175,998,52,0.105873225053178,1
176,986,52,0.0722479292478837,1
176,987,52,0.0679581829570128,1
176,988,52,0.067350487739325,1
176,989,52,0.0687937149831422,1
176,990,52,0.069535621354496,1
176,991,52,0.0713114771073625,1
176,992,52,0.0741791546894861,1
176,993,52,0.0773311896366209,1
176,994,52,0.0813916321733072,1
176,995,52,0.0801591676400283,1
176,996,52,0.0800030731075134,1
176,997,52,0.0896202025696747,1
177,986,52,0.054749337515797,1
177,987,52,0.061591258752201,1
177,988,52,0.0658796589046253,1
177,989,52,0.0674845953438797,1
177,990,52,0.068509213799921,1
177,991,52,0.0683189423079578,1
177,992,52,0.0686284966233785,1
177,993,52,0.0712130076552707,1
177,994,52,0.0750886322865209,1
177,995,52,0.0804865611662299,1
178,987,52,0.054830554535405,1
178,988,52,0.0617535547259354,1
178,989,52,0.0646629453417167,1
178,990,52,0.0666757387193598,1
178,991,52,0.0673174785837427,1
178,992,52,0.0684580145171252,1
178,993,52,0.0726728602841756,1
178,994,52,0.0758331849129405,1
179,987,52,0.0498642010932945,1
179,988,52,0.0565875183281927,1
179,989,52,0.0600983221822446,1
179,990,52,0.0634825314950375,1
179,991,52,0.066624510672922,1
180,988,52,0.0515442509073203,1
180,989,52,0.0536359429550247,1
180,990,52,0.0572673067382398,1
181,989,52,0.0482650403933578,1
170,992,53,0.0938013143373639,1
170,993,53,0.0963590636767206,1
170,996,53,0.135092943381187,1
170,997,53,0.14102569766789,1
171,991,53,0.09064350940364,1
171,992,53,0.0887502692276893,1
171,993,53,0.0885527032761098,1
171,994,53,0.0905943235757855,1
171,995,53,0.10204037771034,1
171,996,53,0.120989588942244,1
171,997,53,0.121100593589528,1
171,998,53,0.113083246121971,1
171,999,53,0.104630497652427,1
171,1000,53,0.090254216519811,1
171,1001,53,0.0868586743320622,1
171,1002,53,0.0908515683318284,1
171,1003,53,0.0899046980001675,1
172,990,53,0.0966392100445399,1
172,991,53,0.0953583650653832,1
172,992,53,0.0889256238949009,1
172,993,53,0.0849118417382996,1
172,994,53,0.08396846331278,1
172,995,53,0.0886175595361368,1
172,996,53,0.0988859726391033,1
172,997,53,0.0988525377816191,1
172,998,53,0.0950045204939799,1
172,999,53,0.0934105142386931,1
172,1000,53,0.0923752935042032,1
172,1001,53,0.0953601656693737,1
172,1002,53,0.0933657925280802,1
172,1003,53,0.0827953841948159,1
172,1004,53,0.0743625574237349,1
173,989,53,0.0968673862639573,1
173,990,53,0.096960787562325,1
173,991,53,0.101219290785234,1
173,992,53,0.0928845480334413,1
173,993,53,0.086516991028505,1
173,994,53,0.0846254996819892,1
173,995,53,0.0844645671048865,1
173,996,53,0.0868105585116909,1
173,997,53,0.0891338669103983,1
173,998,53,0.0932748533974694,1
173,999,53,0.0994325393647699,1
173,1000,53,0.105285514813966,1
173,1004,53,0.081603683495008,1
174,989,53,0.0812323678874417,1
174,990,53,0.0820803718287509,1
174,991,53,0.0907977860739792,1
174,992,53,0.0886178069034582,1
174,993,53,0.0852033842610874,1
174,994,53,0.0854110922728432,1
174,995,53,0.0829166517095728,1
174,996,53,0.0804773798116971,1
174,997,53,0.0840667774412048,1
174,998,53,0.092252001029048,1
174,999,53,0.0994432279341446,1
175,988,53,0.0706495394135531,1
175,989,53,0.0691563267126333,1
175,990,53,0.0690689715318181,1
175,991,53,0.0747720193733484,1
175,992,53,0.0779454487174177,1
175,993,53,0.079660803025659,1
175,994,53,0.0827790694570621,1
175,995,53,0.0804793127284408,1
175,996,53,0.076940516097975,1
175,997,53,0.0833129284056842,1
175,998,53,0.0951938830548553,1
176,987,53,0.0633191827720051,1
176,988,53,0.0630321388828294,1
176,989,53,0.0643919400593313,1
176,990,53,0.0645222911322382,1
176,991,53,0.0668324027719867,1
176,992,53,0.068905340925094,1
176,993,53,0.0716753716952876,1
176,994,53,0.0755640435145581,1
176,995,53,0.0752610588149748,1
176,996,53,0.0756466296835263,1
176,997,53,0.0850570808723161,1
177,986,53,0.0496784167294865,1
177,987,53,0.055607874702814,1
177,988,53,0.0610047508332252,1
177,989,53,0.0648900803172929,1
177,990,53,0.0649245564186182,1
177,991,53,0.0654361868246872,1
177,992,53,0.0657026244407197,1
177,993,53,0.0686582842510546,1
177,994,53,0.0729888864190508,1
177,995,53,0.0778196998272341,1
178,987,53,0.0509545789877223,1
178,988,53,0.0602403340356264,1
178,989,53,0.0661325661034515,1
178,990,53,0.0656563437407093,1
178,991,53,0.0656543993185088,1
178,992,53,0.0659782721749271,1
178,993,53,0.0691706510063593,1
179,987,53,0.0475269912263989,1
179,988,53,0.0563657333900322,1
179,989,53,0.0620677399877214,1
179,990,53,0.0621482379162789,1
179,991,53,0.0632016602834392,1
180,988,53,0.049922315155632,1
180,989,53,0.0536380657118058,1
180,990,53,0.0546095462155791,1
181,989,53,0.0473044210408112,1
170,992,54,0.0853478295185841,1
170,993,54,0.0963592074949307,1
170,995,54,0.119824477353119,1
170,996,54,0.130341028643065,1
170,997,54,0.13696072773395,1
171,991,54,0.0856653053410171,1
171,992,54,0.0829769575614322,1
171,993,54,0.0839057240568057,1
171,994,54,0.0893238335077561,1
171,995,54,0.0954389320266816,1
171,996,54,0.102441745571089,1
171,997,54,0.102423946629407,1
171,998,54,0.105445693783648,1
171,999,54,0.0973356008287611,1
171,1000,54,0.0843581071130416,1
171,1001,54,0.0800663358617725,1
171,1002,54,0.0821709025156451,1
171,1003,54,0.0821071450267433,1
172,990,54,0.0842602992247163,1
172,991,54,0.089068665486667,1
172,992,54,0.0879601319813961,1
172,993,54,0.084097094319894,1
172,994,54,0.0821466490126937,1
172,995,54,0.0838850947727488,1
172,996,54,0.0894075414587631,1
172,997,54,0.0931833620049317,1
172,998,54,0.0979302143420581,1
172,999,54,0.0954614712165686,1
172,1000,54,0.0907181798183242,1
172,1004,54,0.0693999087387166,1
173,989,54,0.0772909493014347,1
173,990,54,0.0793447021053145,1
173,991,54,0.0866762783252841,1
173,992,54,0.0882481365762154,1
173,993,54,0.0857774777921673,1
173,994,54,0.0824312307341126,1
173,995,54,0.0813014984246729,1
173,996,54,0.0847891532996269,1
173,997,54,0.0935913282451601,1
173,998,54,0.103879743584787,1
173,999,54,0.104797165699748,1
174,989,54,0.0714850714396824,1
174,990,54,0.0722113534006909,1
174,991,54,0.0779969989166462,1
174,992,54,0.0803627566982468,1
174,993,54,0.0792827164567611,1
174,994,54,0.0780504647744332,1
174,995,54,0.0768824480574647,1
174,996,54,0.0778535661393486,1
174,997,54,0.0845876582345475,1
174,998,54,0.0925991896936879,1
175,988,54,0.0662276529512417,1
175,989,54,0.0639550433479591,1
175,990,54,0.0642679802676814,1
175,991,54,0.0684710904687875,1
175,992,54,0.0712620439121867,1
175,993,54,0.0724314758003426,1
175,994,54,0.0741955499654376,1
175,995,54,0.0733394576879923,1
175,996,54,0.072574678468504,1
175,997,54,0.0787699297522829,1
175,998,54,0.0846852820355638,1
176,988,54,0.057424131867262,1
176,989,54,0.0590671628740079,1
176,990,54,0.0602239905342306,1
176,991,54,0.0636038622898068,1
176,992,54,0.065678721854201,1
176,993,54,0.0680750151181702,1
176,994,54,0.0710629937566789,1
176,995,54,0.0705321722486541,1
176,996,54,0.0722121070081118,1
176,997,54,0.0809850178242537,1
177,987,54,0.0488651189986387,1
177,988,54,0.0551851354560441,1
177,989,54,0.0620141878390083,1
177,990,54,0.0617623679058504,1
177,991,54,0.0633142814474049,1
177,992,54,0.0646503296083266,1
177,993,54,0.0672751902772447,1
177,994,54,0.0709392525687083,1
177,995,54,0.0747899621332406,1
178,988,54,0.0560526066302726,1
178,989,54,0.0655258315914072,1
178,990,54,0.0632918688175428,1
178,991,54,0.0632482228671414,1
179,988,54,0.051728890478176,1
179,989,54,0.0589156762769446,1
179,990,54,0.0581777853100168,1
180,989,54,0.0497802285167809,1
170,992,55,0.0802517923200616,1
170,993,55,0.0912297181807388,1
170,994,55,0.109519177755626,1
170,995,55,0.115963568201126,1
170,996,55,0.123267439281102,1
170,997,55,0.128317299328726,1
170,998,55,0.137579042488271,1
171,991,55,0.0812417103183698,1
171,992,55,0.0794685641005816,1
171,993,55,0.0790491384253724,1
171,994,55,0.0853044999682449,1
171,995,55,0.0881292449382893,1
171,996,55,0.0896090365238425,1
171,997,55,0.0893942008815941,1
171,998,55,0.0948345388750977,1
171,999,55,0.0888131465491453,1
171,1000,55,0.0802657887082686,1
171,1001,55,0.0751127189603485,1
171,1002,55,0.0744515578848736,1
171,1003,55,0.0744903657906872,1
172,990,55,0.0750986592921291,1
172,991,55,0.0811655729579425,1
172,992,55,0.0840255246258195,1
172,993,55,0.081479694939716,1
172,994,55,0.0794788614844248,1
172,995,55,0.0783084573851686,1
172,996,55,0.079399997330734,1
172,997,55,0.084159016688435,1
172,998,55,0.0931332442350758,1
172,999,55,0.0912260306818318,1
172,1000,55,0.0854966986242235,1
172,1004,55,0.0673162762635063,1
173,989,55,0.0682370464663981,1
173,990,55,0.0696475867074236,1
173,991,55,0.0758615516167008,1
173,992,55,0.0820619746033149,1
173,993,55,0.0824868538650511,1
173,994,55,0.0790685941528348,1
173,995,55,0.0767234829134762,1
173,996,55,0.0788682266225225,1
173,997,55,0.0891347413251157,1
173,998,55,0.101185959476861,1
173,999,55,0.0977961297484171,1
174,988,55,0.068347222720792,1
174,989,55,0.0655340349821113,1
174,990,55,0.0652891873557791,1
174,991,55,0.069388437798279,1
174,992,55,0.0739504894881544,1
174,993,55,0.0739683689680342,1
174,994,55,0.0717621113341636,1
174,995,55,0.0707298532548017,1
174,996,55,0.0718962764660023,1
174,997,55,0.0773535850082977,1
174,998,55,0.0836276486712118,1
175,988,55,0.0613890273378858,1
175,989,55,0.0590980147564387,1
175,990,55,0.0600267524881701,1
175,991,55,0.0647778503388587,1
175,992,55,0.0680053093080986,1
175,993,55,0.0677239433618577,1
175,994,55,0.0671471172847858,1
175,995,55,0.0665779480892198,1
175,996,55,0.0664921749087157,1
175,997,55,0.0702386335291102,1
176,987,55,0.0530919189353126,1
176,988,55,0.0525090812570586,1
176,989,55,0.0554016278840729,1
176,990,55,0.0576576638768235,1
176,991,55,0.0634542510822033,1
176,992,55,0.0666018046539113,1
176,993,55,0.066858548922583,1
176,994,55,0.0667209666700723,1
176,995,55,0.0661428404763811,1
176,996,55,0.0667537859856173,1
177,988,55,0.0519519352638569,1
177,989,55,0.0625082321543462,1
177,990,55,0.0614004234928542,1
177,991,55,0.064449444332458,1
177,992,55,0.0677867976724001,1
177,993,55,0.0693518331874441,1
177,994,55,0.0697223319075771,1
178,988,55,0.0536236723853389,1
178,989,55,0.0670328508404966,1
178,990,55,0.0627726505627089,1
178,991,55,0.0621004615068835,1
179,988,55,0.0473691536171776,1
179,989,55,0.0547027806848232,1
179,990,55,0.05347444085781,1
170,992,56,0.0756730404596292,1
170,993,56,0.0851977638454366,1
170,994,56,0.103342944991951,1
170,995,56,0.110722798108687,1
170,996,56,0.11775976560163,1
170,997,56,0.120844999866537,1
170,998,56,0.122864782809191,1
171,991,56,0.0741066012788545,1
171,992,56,0.0759602856942991,1
171,993,56,0.0756423208899517,1
171,994,56,0.0818224022289291,1
171,995,56,0.0841896212035444,1
171,996,56,0.0835005248789396,1
171,997,56,0.082511826459053,1
171,998,56,0.0860198920143846,1
171,999,56,0.0817812874790255,1
171,1000,56,0.0758422224492632,1
171,1002,56,0.0681184999921763,1
171,1003,56,0.0692651165594818,1
172,990,56,0.0652247395394688,1
172,991,56,0.0714746072267155,1
172,992,56,0.0782180302473857,1
172,993,56,0.078327199774309,1
172,994,56,0.0771052052067255,1
172,995,56,0.0743034653975688,1
172,996,56,0.0730032682400609,1
172,997,56,0.0783609855482258,1
172,998,56,0.0869418357738708,1
172,999,56,0.0845992729931952,1
172,1000,56,0.0783267568142219,1
172,1003,56,0.0683323404124108,1
172,1004,56,0.0693714212276599,1
173,989,56,0.0592700961211884,1
173,990,56,0.0612968053488408,1
173,991,56,0.0667436669363546,1
173,992,56,0.0751111829818646,1
173,993,56,0.077766176442163,1
173,994,56,0.0753809916967419,1
173,995,56,0.0719920478884725,1
173,996,56,0.0724485153818753,1
173,997,56,0.0820804638724054,1
173,998,56,0.0914933484653101,1
174,989,56,0.0577622714901223,1
174,990,56,0.0587171035978944,1
174,991,56,0.0634213799921026,1
174,992,56,0.0693527881403592,1
174,993,56,0.0697905592664489,1
174,994,56,0.0678197895697972,1
174,995,56,0.0664809916046983,1
174,996,56,0.0670739023103878,1
174,997,56,0.070756241019991,1
175,988,56,0.0552605192090505,1
175,989,56,0.0538526885031032,1
175,990,56,0.05608480465115,1
175,991,56,0.0626318410295635,1
175,992,56,0.0673476286333082,1
175,993,56,0.0653133430623476,1
175,994,56,0.0632248322734506,1
175,995,56,0.0630464401656418,1
175,996,56,0.0627517336422318,1
176,987,56,0.0478514393556576,1
176,988,56,0.0491205458925059,1
176,989,56,0.0549329646064535,1
176,990,56,0.0575838563713998,1
176,991,56,0.0647389331312055,1
176,992,56,0.0707377057290732,1
176,993,56,0.0689805118271494,1
176,994,56,0.0657365943019455,1
176,995,56,0.0644877114818016,1
177,988,56,0.0504270940621718,1
177,989,56,0.0665842760904642,1
177,990,56,0.0642416385243193,1
177,991,56,0.0657433480050919,1
177,992,56,0.0715859282740618,1
177,993,56,0.0734908407359442,1
177,994,56,0.0713731923776809,1
178,988,56,0.0509383447881661,1
178,989,56,0.0692182778448162,1
178,990,56,0.0639901004748532,1
178,991,56,0.0602984998725195,1
179,989,56,0.0531755866172208,1
179,990,56,0.0522827976852862,1
170,992,57,0.0716141684177972,1
170,993,57,0.0782328607812113,1
170,994,57,0.0896884701976453,1
170,997,57,0.109046038855308,1
170,998,57,0.102605295639616,1
170,999,57,0.0872450793462323,1
170,1000,57,0.0783051840827067,1
171,991,57,0.0672046560742829,1
171,992,57,0.0710901236238323,1
171,993,57,0.0721516803489559,1
171,994,57,0.0764150561328227,1
171,995,57,0.0800711508954467,1
171,996,57,0.0803755220025754,1
171,997,57,0.080056475685288,1
171,998,57,0.0798342995615961,1
171,999,57,0.0760825254201563,1
171,1000,57,0.0708663770052861,1
171,1001,57,0.0662652240204484,1
172,990,57,0.058199956325286,1
172,991,57,0.0637349324537642,1
172,992,57,0.0709958364052903,1
172,993,57,0.0733700737085585,1
172,994,57,0.0726681948214399,1
172,995,57,0.0707062900792588,1
172,996,57,0.0697788121950479,1
172,997,57,0.0729547612341581,1
172,998,57,0.0761706802302196,1
172,999,57,0.0734428572283262,1
172,1000,57,0.0687516050112247,1
172,1001,57,0.0663105152511733,1
172,1002,57,0.0656952034210786,1
172,1003,57,0.072074467228317,1
173,989,57,0.0546448794734367,1
173,990,57,0.0566945420874212,1
173,991,57,0.0620073305867507,1
173,992,57,0.069643847433961,1
173,993,57,0.072898902241355,1
173,994,57,0.070894283490774,1
173,995,57,0.0678625438472959,1
173,996,57,0.0678180349876339,1
173,997,57,0.0721145637452931,1
173,998,57,0.0746660541161462,1
174,989,57,0.0532105056786333,1
174,990,57,0.0548755926460802,1
174,991,57,0.0605463964449059,1
174,992,57,0.0659785022840633,1
174,993,57,0.0666544536242649,1
174,994,57,0.0646498693900543,1
174,995,57,0.0638325217384101,1
174,996,57,0.063805852089529,1
175,988,57,0.0508322529709391,1
175,989,57,0.0515607669905683,1
175,990,57,0.0538646944472825,1
175,991,57,0.0614458355308756,1
175,992,57,0.066363520890688,1
175,993,57,0.0634820079967527,1
175,994,57,0.060112381850464,1
175,995,57,0.0610420745351105,1
176,988,57,0.0488310973628573,1
176,989,57,0.0570976127557778,1
176,990,57,0.0596730517349769,1
176,991,57,0.0663372884491657,1
176,992,57,0.0732045562069178,1
176,993,57,0.0710921025624033,1
176,994,57,0.0648267830466634,1
177,988,57,0.0510784122193474,1
177,989,57,0.0686129527512309,1
177,990,57,0.0674831686672355,1
177,991,57,0.0670577544017577,1
177,992,57,0.0742515240128088,1
177,993,57,0.0777330177156422,1
178,988,57,0.0500524476248595,1
178,989,57,0.0675714442845953,1
178,990,57,0.0645683589812976,1
178,991,57,0.0598380687492464,1
178,993,57,0.0695184609656668,1
179,989,57,0.0535822815044719,1
179,990,57,0.0535923257682654,1
170,992,58,0.0687291291013502,1
170,993,58,0.073710094473607,1
170,997,58,0.104639575457848,1
170,998,58,0.0933508124233161,1
170,999,58,0.0804419947792839,1
170,1000,58,0.0731275156681311,1
170,1001,58,0.0689552573494557,1
171,991,58,0.0618234043542171,1
171,992,58,0.0662016448661271,1
171,993,58,0.0694920559422923,1
171,994,58,0.0724251075299993,1
171,996,58,0.0810584341441459,1
171,997,58,0.0829083907915846,1
171,998,58,0.078405028436887,1
171,999,58,0.0727000131622426,1
171,1000,58,0.0672906133420959,1
171,1001,58,0.0633833026827964,1
171,1002,58,0.0628996420422278,1
172,991,58,0.0587315774625589,1
172,992,58,0.0656176221258218,1
172,993,58,0.0698892243113064,1
172,994,58,0.0697089970831366,1
172,995,58,0.0690249343958853,1
172,996,58,0.0694252552600647,1
172,997,58,0.0704310162723977,1
172,998,58,0.0685203971039385,1
172,999,58,0.0658630047558956,1
172,1000,58,0.0632579047090454,1
172,1001,58,0.0618047885251017,1
172,1002,58,0.0650101397590849,1
172,1003,58,0.0780488540104801,1
173,990,58,0.0534513206423543,1
173,991,58,0.0585944784392342,1
173,992,58,0.0658908997359268,1
173,993,58,0.0701867094025354,1
173,994,58,0.0687722285425532,1
173,995,58,0.0660153830258615,1
173,996,58,0.0654076590445316,1
173,997,58,0.0649974780038677,1
173,1002,58,0.0710506656597091,1
173,1003,58,0.0890636376020419,1
173,1004,58,0.0978287362130111,1
174,989,58,0.0506151680118847,1
174,990,58,0.0527206666077587,1
174,991,58,0.058115408475932,1
174,992,58,0.0637172485666502,1
174,993,58,0.0653226624823621,1
174,994,58,0.0640027162082432,1
174,995,58,0.0630488390533862,1
174,996,58,0.0622556586137673,1
175,988,58,0.0483089969910929,1
175,989,58,0.0525400942158847,1
175,990,58,0.0544457085106324,1
175,991,58,0.0602356398092487,1
175,992,58,0.0656666928991082,1
175,993,58,0.0644075587169483,1
175,994,58,0.0604142102516381,1
175,995,58,0.0606848876285044,1
176,988,58,0.0493248367835897,1
176,989,58,0.0599433436790401,1
176,990,58,0.0629446686474461,1
176,991,58,0.0663443758105594,1
176,992,58,0.0741251998497848,1
176,993,58,0.0753586480996207,1
176,994,58,0.0669865068604738,1
177,988,58,0.0507107093252188,1
177,989,58,0.066289408490659,1
177,990,58,0.0679682789953619,1
177,991,58,0.0655297204358083,1
177,992,58,0.0728250487141041,1
177,993,58,0.0802423175763801,1
178,988,58,0.0475270947755101,1
178,989,58,0.060269816768697,1
178,990,58,0.0607816255093466,1
178,991,58,0.0570027560171238,1
179,989,58,0.0543866222371947,1
179,990,58,0.0557566287538854,1
170,992,59,0.0642241444772427,1
170,993,59,0.0692187898376442,1
170,998,59,0.08556599023785,1
170,999,59,0.0751272388468403,1
170,1000,59,0.0682180336990228,1
170,1001,59,0.0647841093073623,1
171,991,59,0.0588497615148913,1
171,992,59,0.0613646875440084,1
171,993,59,0.0656313826521643,1
171,994,59,0.0685813300031939,1
171,997,59,0.0817889155968893,1
171,998,59,0.0739457895090484,1
171,999,59,0.0682841095374714,1
171,1000,59,0.0633717224405191,1
171,1001,59,0.0603280573910594,1
171,1002,59,0.0598984954084023,1
172,990,59,0.0538957534279358,1
172,991,59,0.0571614565356057,1
172,992,59,0.0615758126764362,1
172,993,59,0.0655652377809748,1
172,994,59,0.0661661620373311,1
172,995,59,0.0675960832203498,1
172,996,59,0.0692621366461686,1
172,997,59,0.0676884892967036,1
172,998,59,0.0618472609189086,1
172,999,59,0.0603898762104891,1
172,1000,59,0.0595681794961714,1
172,1001,59,0.0586344656543706,1
172,1002,59,0.0622850665613687,1
172,1003,59,0.078335472197754,1
173,990,59,0.0522202137529788,1
173,991,59,0.0569650066133366,1
173,992,59,0.062635977241286,1
173,993,59,0.0662980145723514,1
173,994,59,0.0651093052913136,1
173,995,59,0.0637937541016954,1
173,996,59,0.0633100186756575,1
173,997,59,0.0604473344617885,1
173,1003,59,0.0950467972950211,1
173,1004,59,0.100054604898011,1
174,989,59,0.0497610374148251,1
174,990,59,0.0514522360164979,1
174,991,59,0.0560544244924483,1
174,992,59,0.0609551335507404,1
174,993,59,0.0629359014893584,1
174,994,59,0.0614190910965253,1
174,995,59,0.0606233794564086,1
174,996,59,0.0593531022393301,1
175,988,59,0.0480667035761721,1
175,989,59,0.0544727003123041,1
175,990,59,0.0551893119368654,1
175,991,59,0.0578481309615524,1
175,992,59,0.0630753131095016,1
175,993,59,0.0638867642145317,1
175,994,59,0.0591326691923445,1
176,988,59,0.0498207564883873,1
176,989,59,0.0607791978579601,1
176,990,59,0.0634950149156742,1
176,991,59,0.0637189226106158,1
176,992,59,0.0712368527145054,1
176,993,59,0.0757040189020849,1
177,988,59,0.0491828249302079,1
177,989,59,0.0602802119489231,1
177,990,59,0.0641585403625231,1
177,991,59,0.0628678006905115,1
178,989,59,0.0527729358980377,1
178,990,59,0.0562393689579094,1
179,989,59,0.0523829009122447,1
170,992,60,0.0609489378622493,1
170,993,60,0.0655645647117515,1
170,998,60,0.0789930608288899,1
171,991,60,0.0570614050832029,1
171,992,60,0.0587332112374257,1
171,993,60,0.0628529241348587,1
171,994,60,0.0658932986236712,1
171,997,60,0.0775114168647906,1
171,998,60,0.0689887382287671,1
171,999,60,0.0643856523271857,1
171,1000,60,0.0607556979624296,1
171,1001,60,0.0580037595230666,1
172,990,60,0.0529820073064253,1
172,991,60,0.0562017403614186,1
172,992,60,0.0586428186160132,1
172,993,60,0.0620615730628723,1
172,994,60,0.0640527937090003,1
172,995,60,0.0675226036204451,1
172,996,60,0.0693904627586772,1
172,997,60,0.0658499288042333,1
172,998,60,0.0588297362673169,1
172,999,60,0.058137792342152,1
172,1000,60,0.0579570761320679,1
172,1001,60,0.0564178358511875,1
172,1002,60,0.0593896493228809,1
173,990,60,0.0509420092761595,1
173,991,60,0.0553606281887374,1
173,992,60,0.0593147257881468,1
173,993,60,0.0624861819463735,1
173,994,60,0.0623675204175837,1
173,995,60,0.0627085133937324,1
173,996,60,0.0622287991248489,1
173,997,60,0.0584678666397899,1
173,998,60,0.0534386243707666,1
173,1000,60,0.0576298379295332,1
173,1003,60,0.092101429115801,1
174,989,60,0.0491773828491377,1
174,990,60,0.052011993748395,1
174,991,60,0.0550252096064121,1
174,992,60,0.0602587887883465,1
174,993,60,0.0639193073991133,1
174,994,60,0.0616182045320455,1
174,995,60,0.0586704604759946,1
174,996,60,0.0567309798691323,1
175,989,60,0.0563432689856145,1
175,990,60,0.0593357577631919,1
175,991,60,0.0584635003189313,1
175,992,60,0.0640657143369957,1
175,993,60,0.0682057803875222,1
176,989,60,0.0586826620129395,1
176,990,60,0.0635175310946476,1
176,991,60,0.0617121753505252,1
176,992,60,0.0688717910130417,1
177,989,60,0.0513381076376904,1
177,990,60,0.0571748949091575,1
177,991,60,0.0590776558506168,1
178,990,60,0.0485469298378835,1
171,992,61,0.0566484972492754,1
171,993,61,0.0608323358102281,1
171,998,61,0.0614372064382695,1
172,991,61,0.0551667324778796,1
172,992,61,0.0554561925129851,1
172,993,61,0.0585384468645789,1
172,995,61,0.0676311921217995,1
172,997,61,0.0614917825726385,1
172,998,61,0.0548328498740383,1
172,999,61,0.0547033789685772,1
172,1000,61,0.0555624971811631,1
172,1001,61,0.0557729895134664,1
173,990,61,0.049863154096725,1
173,991,61,0.0539357003739734,1
173,992,61,0.055298912918419,1
173,993,61,0.0575932160605132,1
173,994,61,0.0601294214319968,1
173,995,61,0.0625888854065706,1
173,996,61,0.0608879129193394,1
173,997,61,0.0557943148776602,1
173,998,61,0.0510922590366159,1
173,999,61,0.0530499757925189,1
173,1000,61,0.0570133352846588,1
173,1001,61,0.059872435548732,1
174,989,61,0.050098302622968,1
174,990,61,0.0551071342116139,1
174,991,61,0.0567997479844741,1
174,992,61,0.0609204733621062,1
174,993,61,0.0647137937080799,1
174,994,61,0.0623612096745244,1
174,995,61,0.0580798566143951,1
174,996,61,0.0552103611700958,1
175,989,61,0.0606321408617679,1
175,990,61,0.0688305554558416,1
175,991,61,0.0650082701223536,1
175,992,61,0.0686345427409312,1
175,993,61,0.0723179341998323,1
176,988,61,0.0468053804808545,1
176,989,61,0.0603004442947201,1
176,990,61,0.0684429596268918,1
176,991,61,0.0661755504900864,1
176,992,61,0.069923803961743,1
177,989,61,0.0518427139623781,1
177,990,61,0.0566430033936495,1
177,991,61,0.0595711018822007,1
178,990,61,0.0469726180482879,1
172,992,62,0.0531526907581728,1
172,994,62,0.0645781213613993,1
172,998,62,0.0536282227935065,1
173,990,62,0.0509111516410003,1
173,991,62,0.0534020025017465,1
173,992,62,0.0513723536298796,1
173,993,62,0.0530669981158664,1
173,994,62,0.0600686726200502,1
173,995,62,0.0653897392955531,1
173,996,62,0.0606981534202041,1
173,997,62,0.0541409174543302,1
173,998,62,0.0502135873001847,1
173,999,62,0.0525179749751712,1
173,1000,62,0.0584275802827765,1
173,1001,62,0.063447313291748,1
174,989,62,0.0508311484470855,1
174,990,62,0.0591377776151673,1
174,991,62,0.0587625559050146,1
174,992,62,0.059666148460892,1
174,993,62,0.0635324076503004,1
174,994,62,0.061702148344917,1
174,995,62,0.057559539588436,1
174,996,62,0.0541403766978603,1
174,997,62,0.0511572073402974,1
175,989,62,0.0610130807839542,1
175,990,62,0.0737326394162223,1
175,991,62,0.068399704862022,1
175,992,62,0.0691660660818213,1
175,994,62,0.0632699969441507,1
175,995,62,0.0524717920715437,1
176,989,62,0.0584216837361624,1
176,990,62,0.0675389643800262,1
176,991,62,0.0655003527573057,1
177,988,62,0.0485152150461921,1
177,989,62,0.053580388856827,1
177,990,62,0.0568367207699268,1
178,989,62,0.0489880317937191,1
172,993,63,0.0567095336976421,1
173,990,63,0.0561553388541117,1
173,992,63,0.0529185662175857,1
173,993,63,0.05399889984822,1
173,994,63,0.0629221064466455,1
173,995,63,0.0692216604491178,1
173,997,63,0.0523086849631043,1
173,998,63,0.0495883347554078,1
173,999,63,0.0527734766545077,1
173,1001,63,0.0711593692156316,1
174,989,63,0.055904560164795,1
174,990,63,0.0689626150890845,1
174,991,63,0.0683242405708179,1
174,992,63,0.0628135639671183,1
174,993,63,0.0654063876915544,1
174,994,63,0.0618747301970379,1
174,995,63,0.0591355052874477,1
174,996,63,0.0532274474637831,1
174,997,63,0.0507113018562444,1
174,998,63,0.0496496530874663,1
174,1000,63,0.0624088077493394,1
174,1001,63,0.0721527676146243,1
175,988,63,0.0475705997840656,1
175,989,63,0.0641251400214094,1
175,990,63,0.0801870741255162,1
175,991,63,0.0763454193554919,1
175,992,63,0.0722708020960181,1
175,993,63,0.0752035142727493,1
175,994,63,0.0607015245190489,1
175,995,63,0.0514097693754194,1
175,996,63,0.0502897706824393,1
176,988,63,0.0505436270814522,1
176,989,63,0.0607439508910286,1
176,990,63,0.0690410362826882,1
176,991,63,0.0688105532191808,1
176,994,63,0.054076826307181,1
176,995,63,0.0503773502196622,1
177,988,63,0.0535747109138922,1
177,989,63,0.0601669177157342,1
177,990,63,0.0619609520903574,1
178,988,63,0.0494785842029158,1
178,989,63,0.0573833047537786,1
173,992,64,0.0577366891069096,1
173,993,64,0.057721444376639,1
173,994,64,0.0675920678159237,1
173,1001,64,0.0793302742624772,1
174,990,64,0.0831927366511389,1
174,991,64,0.0811856614855294,1
174,992,64,0.0676482662197027,1
174,993,64,0.0654356978427729,1
174,994,64,0.0630128729954043,1
174,995,64,0.0610681631584228,1
174,996,64,0.0549483991767616,1
174,997,64,0.050635975630522,1
174,998,64,0.0493082516676009,1
174,999,64,0.0521912027436373,1
174,1000,64,0.0613291241770147,1
174,1001,64,0.0737636351168632,1
175,989,64,0.0669443566194575,1
175,990,64,0.0842834309456289,1
175,991,64,0.0806857378817626,1
175,992,64,0.0713365359922904,1
175,993,64,0.0697424261878924,1
175,994,64,0.0569489622538177,1
175,995,64,0.0513348343352285,1
175,996,64,0.0519183680936194,1
176,988,64,0.0522780286734392,1
176,989,64,0.0630145988139255,1
176,990,64,0.0703803519933434,1
176,991,64,0.0688747824318118,1
176,993,64,0.0600722163007471,1
176,994,64,0.0507387941452872,1
176,995,64,0.0495136873516371,1
177,988,64,0.0534645864340539,1
177,989,64,0.0619788258175087,1
177,990,64,0.0647664541838903,1
178,988,64,0.0491220473546193,1
178,989,64,0.0574830167952056,1
173,992,65,0.0667761698518373,1
173,993,65,0.067902341222395,1
174,991,65,0.0901855346953953,1
174,992,65,0.0755976969757216,1
174,993,65,0.0733693431120512,1
174,994,65,0.0710902444311288,1
174,995,65,0.0699868998868784,1
174,996,65,0.0612016839846803,1
174,997,65,0.053222776248319,1
174,998,65,0.0504751408498022,1
174,999,65,0.0517465110852775,1
174,1000,65,0.0582181234415859,1
174,1001,65,0.0703220941127958,1
175,989,65,0.0650052096708427,1
175,990,65,0.0794684030241863,1
175,991,65,0.0818364273807782,1
175,992,65,0.0743225644558701,1
175,993,65,0.074773963795549,1
175,994,65,0.0668269204218177,1
175,995,65,0.0637775774294232,1
175,996,65,0.0579175606406606,1
176,988,65,0.0520528783891624,1
176,989,65,0.0623689701051415,1
176,990,65,0.0694695512687758,1
176,993,65,0.0664304078638417,1
176,994,65,0.0602947030717729,1
176,995,65,0.0579748060410091,1
177,988,65,0.0515832141368008,1
177,989,65,0.0608905073998496,1
174,992,66,0.0796914995844229,1
174,993,66,0.0751086862977373,1
174,995,66,0.0789884298825247,1
174,996,66,0.0744585704607982,1
174,997,66,0.0584022337614284,1
175,991,66,0.0772169231923317,1
175,992,66,0.0741543029027807,1
175,993,66,0.0745265389468917,1
175,994,66,0.0747837204229222,1
175,995,66,0.0740072056374897,1
175,996,66,0.0651964993957334,1
176,989,66,0.0564476004679499,1
176,990,66,0.063686661309726,1
176,991,66,0.0657428935395479,1
176,993,66,0.0687488954761464,1
177,989,66,0.0545762149072062,1
177,990,66,0.0612759517083762,1
178,989,66,0.0472972301303062,1
174,994,67,0.0752133284274066,1
174,995,67,0.0818411733817115,1
174,996,67,0.0842118785097396,1
175,991,67,0.0757134763875811,1
175,992,67,0.0732528388564128,1
175,993,67,0.073833542272429,1
175,994,67,0.0776638411565837,1
175,995,67,0.0760839233331585,1
176,990,67,0.0618871560903905,1
176,994,67,0.0728576494259697,1
177,989,67,0.0501219405839802,1
174,994,68,0.0694563890261873,1
174,995,68,0.0779048229494285,1
175,992,68,0.0672832153333683,1
175,994,68,0.0712346551722551,1
176,991,68,0.0624691653757544,1
177,989,68,0.0472253267779843,1
177,990,68,0.0530173060479124,1
176,992,69,0.0566617802991603,1
177,991,69,0.0493584212120124,1
