x,y,z,signal,mito.p
585,167,1,0.0509435625128286,1
585,168,1,0.0485636990411813,1
585,169,1,0.0478250688486535,1
586,166,1,0.0538742612346184,1
586,167,1,0.051982534026238,1
586,168,1,0.0493560971097372,1
586,169,1,0.048705952509156,1
586,170,1,0.0485481954381324,1
587,167,1,0.0510330059340544,1
587,168,1,0.048898783965259,1
587,169,1,0.0476421924890537,1
587,170,1,0.0481684664652752,1
587,171,1,0.0509590776213342,1
587,172,1,0.0503419019072366,1
588,167,1,0.0498525057964491,1
588,168,1,0.0488518359487538,1
588,169,1,0.0476040835397412,1
588,170,1,0.0479310168476705,1
588,171,1,0.0502937803341369,1
588,172,1,0.0490088969396405,1
589,167,1,0.0469300047126351,1
589,168,1,0.0472097253785525,1
589,169,1,0.0476352460695058,1
589,170,1,0.0480331622932124,1
589,171,1,0.0481081117152243,1
590,169,1,0.0468841209508846,1
590,170,1,0.0476944128811413,1
585,167,2,0.0516539324270715,1
585,168,2,0.0492618559130224,1
586,166,2,0.0573770975598307,1
586,167,2,0.0558850066409497,1
586,168,2,0.0530502921925811,1
586,169,2,0.0518829485448358,1
587,166,2,0.0575738236130632,1
587,167,2,0.0569202561390816,1
587,168,2,0.0549343452612705,1
587,169,2,0.0542515251633545,1
587,170,2,0.0548617688397253,1
587,171,2,0.057036789158362,1
587,172,2,0.0544458350706573,1
588,167,2,0.056037419427286,1
588,168,2,0.0555979397408603,1
588,169,2,0.0564586284483005,1
588,170,2,0.0591891149634449,1
588,171,2,0.0619769101589502,1
588,172,2,0.0580604296505747,1
588,173,2,0.0507294171979887,1
589,167,2,0.0528497290695031,1
589,168,2,0.0537094628240282,1
589,169,2,0.0567346616153109,1
589,170,2,0.0609042219043648,1
589,171,2,0.0630169516798427,1
589,172,2,0.0580102313425211,1
589,173,2,0.0505248904450403,1
590,168,2,0.0502902193952548,1
590,169,2,0.0538471141092797,1
590,170,2,0.0573461363755602,1
590,171,2,0.0584635635989437,1
590,172,2,0.0550067663591488,1
590,173,2,0.0495009335527654,1
591,169,2,0.0498493935703826,1
591,170,2,0.0512890828862313,1
591,171,2,0.0513163565715948,1
591,172,2,0.0490895386864082,1
585,167,3,0.0557383580884742,1
585,168,3,0.0536290051645694,1
586,165,3,0.0626918937613731,1
586,166,3,0.06146816762254,1
586,167,3,0.0601450400896137,1
586,168,3,0.0576496215625147,1
586,169,3,0.0555739796270575,1
587,166,3,0.0618428083071239,1
587,167,3,0.0609834542326735,1
587,168,3,0.0593008732181499,1
587,169,3,0.0583053865787466,1
587,170,3,0.0577818652830665,1
587,171,3,0.0577386968091226,1
587,172,3,0.0545592501111427,1
588,167,3,0.0600125605071974,1
588,168,3,0.060065692706737,1
588,169,3,0.0624801530870061,1
588,170,3,0.0665501566582999,1
588,171,3,0.0691663767291551,1
588,172,3,0.0645733696077376,1
588,173,3,0.0567941218160949,1
589,167,3,0.0575424482323476,1
589,168,3,0.0589942010196596,1
589,169,3,0.0644779375962432,1
589,170,3,0.0731023302231782,1
589,171,3,0.0786410628833043,1
589,172,3,0.0731693149927147,1
589,173,3,0.0624184665803297,1
589,174,3,0.0507336166897236,1
590,168,3,0.0556963459129396,1
590,169,3,0.0604328951134944,1
590,170,3,0.0667745073133286,1
590,171,3,0.0711235182122177,1
590,172,3,0.0680836557162331,1
590,173,3,0.0599081657448495,1
590,174,3,0.0499269863710961,1
591,169,3,0.0534079738338299,1
591,170,3,0.0551184325701994,1
591,171,3,0.0561437413536492,1
591,172,3,0.0544701403481643,1
591,173,3,0.0503645158825928,1
585,165,4,0.0602708810234518,1
585,166,4,0.0582473530546067,1
585,167,4,0.0568496874197494,1
585,168,4,0.0551330905221729,1
586,165,4,0.0629004129078339,1
586,166,4,0.0621736764812815,1
586,167,4,0.0613973285249728,1
586,168,4,0.0596345199601267,1
586,169,4,0.0578310913800197,1
587,166,4,0.0645124309557537,1
587,167,4,0.0638710420078035,1
587,168,4,0.063130550807637,1
587,169,4,0.0630774876408383,1
587,170,4,0.0624495025500694,1
587,171,4,0.0612255405493718,1
587,172,4,0.0581669874388025,1
588,167,4,0.0645458773186947,1
588,168,4,0.065280500735889,1
588,169,4,0.0686981851752649,1
588,170,4,0.0732010355371346,1
588,171,4,0.0757334786242419,1
588,172,4,0.0719169287609727,1
588,173,4,0.0648286929524935,1
589,167,4,0.0647055097791781,1
589,168,4,0.0663598448972379,1
589,169,4,0.0722359578200749,1
589,170,4,0.081787017196516,1
589,171,4,0.0888753277904645,1
589,172,4,0.0845780626835696,1
589,173,4,0.073295627650282,1
589,174,4,0.0584835543301477,1
590,168,4,0.0637456325285957,1
590,169,4,0.0675929077142707,1
590,170,4,0.0731269749116611,1
590,171,4,0.0780444301623374,1
590,172,4,0.0757144083295826,1
590,173,4,0.0675330793388688,1
590,174,4,0.0558432763491069,1
591,169,4,0.0598583126005002,1
591,170,4,0.0601638917805937,1
591,171,4,0.0606155384875939,1
591,172,4,0.0586979700232226,1
591,173,4,0.0548243818578275,1
584,166,5,0.0536525395764703,1
584,167,5,0.0527230654955032,1
585,165,5,0.0586267569983092,1
585,166,5,0.0574525733564915,1
585,167,5,0.0562961541399855,1
585,168,5,0.0548870003065054,1
586,165,5,0.0641647418037427,1
586,166,5,0.0626037331985814,1
586,167,5,0.0610552770467978,1
586,168,5,0.0602191352314576,1
586,169,5,0.0595674086305653,1
586,170,5,0.0570319798774163,1
587,166,5,0.0673550093838506,1
587,167,5,0.0656633908330043,1
587,168,5,0.0672381254481375,1
587,169,5,0.0702568754308794,1
587,170,5,0.0689384306188739,1
587,171,5,0.0650395362012295,1
587,172,5,0.0603065249286432,1
588,167,5,0.0684038353210161,1
588,168,5,0.0713145375588734,1
588,169,5,0.0781140381760261,1
588,170,5,0.0824768153539861,1
588,171,5,0.0825328354231845,1
588,172,5,0.0771061774178257,1
588,173,5,0.0701675470642216,1
589,167,5,0.0684296420606365,1
589,168,5,0.0708495330165191,1
589,169,5,0.0778811792356879,1
589,170,5,0.0870891516428412,1
589,171,5,0.0929385086258711,1
589,172,5,0.0888308937162718,1
589,173,5,0.0783895996193074,1
589,174,5,0.0638625682388643,1
590,168,5,0.067318565849411,1
590,169,5,0.0706254009651698,1
590,170,5,0.0750797385684082,1
590,171,5,0.0787186269203758,1
590,172,5,0.07666547240025,1
590,173,5,0.0700480283788995,1
590,174,5,0.0598838029400584,1
591,169,5,0.062733980722377,1
591,170,5,0.0623789568416509,1
591,171,5,0.0617998469314026,1
591,172,5,0.059917513928506,1
591,173,5,0.0569213031356512,1
583,165,6,0.0542971788159688,1
583,166,6,0.0524380120503552,1
583,167,6,0.0514571488465549,1
584,165,6,0.0548749425877705,1
584,166,6,0.0533953868640819,1
584,167,6,0.0530106904102478,1
584,168,6,0.051823148933076,1
584,169,6,0.0509859428629811,1
585,165,6,0.0585467538043943,1
585,166,6,0.0571889373191917,1
585,167,6,0.0558069938910627,1
585,168,6,0.0537946089571362,1
585,169,6,0.0522583773532111,1
585,170,6,0.0507965055166364,1
585,171,6,0.0492865753869745,1
586,165,6,0.0673887721468538,1
586,166,6,0.0646728227763864,1
586,167,6,0.061204543090697,1
586,168,6,0.0600452647681742,1
586,169,6,0.060892549618433,1
586,170,6,0.0587010419801904,1
586,171,6,0.0547820475295023,1
587,166,6,0.0744429287922676,1
587,167,6,0.0698225616945605,1
587,168,6,0.0715528961075659,1
587,169,6,0.0780451837697583,1
587,170,6,0.0781133075795188,1
587,171,6,0.0713532936901314,1
587,172,6,0.0628564908264692,1
587,173,6,0.0569457349731831,1
588,167,6,0.074316967051133,1
588,168,6,0.0772530100576101,1
588,169,6,0.0872940925922346,1
588,170,6,0.0934072639471449,1
588,171,6,0.0900746220917657,1
588,172,6,0.0805480233164985,1
588,173,6,0.0704777054161248,1
588,174,6,0.0610159744063414,1
589,168,6,0.0731059256784308,1
589,169,6,0.079418009123367,1
589,170,6,0.0871771166128671,1
589,171,6,0.0903184572378988,1
589,172,6,0.086166425512292,1
589,173,6,0.0761414448644703,1
589,174,6,0.0644521251038943,1
589,175,6,0.0572625262209361,1
589,176,6,0.0528899751574177,1
590,168,6,0.0666711940639206,1
590,169,6,0.0684362346873875,1
590,170,6,0.071224858275783,1
590,171,6,0.0732225104722668,1
590,172,6,0.0723537104177769,1
590,173,6,0.0673631840109127,1
590,174,6,0.0602368133658432,1
590,175,6,0.0553500201575603,1
591,169,6,0.0615160360755899,1
591,170,6,0.0610764931091518,1
591,171,6,0.0602178753839371,1
591,172,6,0.0595025638759951,1
591,173,6,0.0576195750620604,1
591,174,6,0.0546058011893881,1
582,165,7,0.0563428317782558,1
582,166,7,0.0548097411640393,1
582,167,7,0.0532215739280826,1
583,164,7,0.0554069951796738,1
583,165,7,0.0547742295716012,1
583,166,7,0.0534428526261435,1
583,167,7,0.0527088562563453,1
583,168,7,0.0521378634458751,1
583,169,7,0.0524032137962393,1
584,164,7,0.056114321900591,1
584,165,7,0.0555814351630691,1
584,166,7,0.0543455535091183,1
584,167,7,0.0537112174061914,1
584,168,7,0.0525920413533731,1
584,169,7,0.0516471096911843,1
584,170,7,0.0505095536711151,1
584,171,7,0.0492052720764404,1
585,164,7,0.060802847324429,1
585,165,7,0.0597994967052974,1
585,166,7,0.0573388649268575,1
585,167,7,0.0551413859565315,1
585,168,7,0.0533155447465624,1
585,169,7,0.0518651496031538,1
585,170,7,0.0499444516545307,1
585,171,7,0.0486118378724662,1
586,165,7,0.0752809862661663,1
586,166,7,0.0720042379199607,1
586,167,7,0.0658288623128177,1
586,168,7,0.06387401041566,1
586,169,7,0.065029020213707,1
586,170,7,0.0631023739439141,1
586,171,7,0.0583431014661634,1
586,172,7,0.0532336373995459,1
586,173,7,0.0488114057735303,1
587,166,7,0.0948519753948903,1
587,167,7,0.0860125860493115,1
587,168,7,0.0850216095489769,1
587,169,7,0.0927096133154032,1
587,170,7,0.0946229247607555,1
587,171,7,0.0862112967938434,1
587,172,7,0.0742049901927486,1
587,173,7,0.0630837293511567,1
587,174,7,0.055238158353744,1
588,167,7,0.0943799295129694,1
588,168,7,0.0946339815047481,1
588,169,7,0.104095677998161,1
588,170,7,0.112216022315064,1
588,171,7,0.109965911632569,1
588,172,7,0.0978958935643997,1
588,173,7,0.0816883924207573,1
588,174,7,0.0690855163787081,1
588,175,7,0.0601623615548382,1
588,176,7,0.0547002552370538,1
588,177,7,0.0523554949141279,1
589,168,7,0.0822921757831304,1
589,169,7,0.0861140008983461,1
589,170,7,0.0916554200826368,1
589,171,7,0.0961727788255414,1
589,172,7,0.0940238126138465,1
589,173,7,0.0837124668988008,1
589,174,7,0.0731353969060446,1
589,175,7,0.0658238574391062,1
589,176,7,0.0604817530358298,1
589,177,7,0.057472057847596,1
590,168,7,0.0716995043909425,1
590,169,7,0.0701352857633318,1
590,170,7,0.0699300341666045,1
590,171,7,0.0728729516835245,1
590,172,7,0.0744053347121473,1
590,173,7,0.0703940089705746,1
590,174,7,0.0643464129667419,1
590,175,7,0.0607556231769604,1
590,176,7,0.0577848567018365,1
591,169,7,0.0636483826549256,1
591,170,7,0.0609235970936296,1
591,171,7,0.0611873251745838,1
591,172,7,0.0613163186035873,1
591,173,7,0.0593927500434906,1
591,174,7,0.0560968278535144,1
591,175,7,0.0547609867908151,1
581,166,8,0.0595573125922162,1
581,167,8,0.0586352307672483,1
582,165,8,0.0558566859590166,1
582,166,8,0.054705426939889,1
582,167,8,0.0528727169722056,1
582,168,8,0.051479532712775,1
582,170,8,0.0522615701174753,1
583,164,8,0.054891009958203,1
583,165,8,0.0549712547667108,1
583,166,8,0.0540804390206187,1
583,167,8,0.0527204537568078,1
583,168,8,0.0518880569676586,1
583,169,8,0.0519964441235189,1
583,170,8,0.0510433781033669,1
583,171,8,0.0483247479614632,1
584,164,8,0.0558004875552377,1
584,165,8,0.0555990960392695,1
584,166,8,0.054547664116137,1
584,167,8,0.053461255604308,1
584,168,8,0.0524958902508282,1
584,169,8,0.0516300010769108,1
584,170,8,0.0500375250473795,1
584,171,8,0.0478174263489688,1
585,164,8,0.0630775451681223,1
585,165,8,0.0618949855537484,1
585,166,8,0.0589606568603357,1
585,167,8,0.0564535602945765,1
585,168,8,0.0552390902957455,1
585,169,8,0.0538218481261293,1
585,170,8,0.0516226548427388,1
585,171,8,0.0490885262062091,1
585,172,8,0.0468438806156984,1
586,165,8,0.0784173565338569,1
586,166,8,0.0765357138583687,1
586,167,8,0.0702174174667561,1
586,168,8,0.0684035131682254,1
586,169,8,0.0682228199690549,1
586,170,8,0.0663131960226096,1
586,171,8,0.0602753854097922,1
586,172,8,0.0548662617206088,1
586,173,8,0.0486852599450868,1
587,166,8,0.109054253751469,1
587,167,8,0.100602103565679,1
587,168,8,0.0968194545308949,1
587,169,8,0.0989929963983318,1
587,170,8,0.100411768793703,1
587,171,8,0.0920428433297344,1
587,172,8,0.0795932314778253,1
587,173,8,0.0653645596033287,1
587,174,8,0.0560544820197323,1
587,175,8,0.0494136301465059,1
588,167,8,0.113616455012283,1
588,168,8,0.11124302884372,1
588,169,8,0.111865128893332,1
588,170,8,0.117270346479928,1
588,171,8,0.116321077260523,1
588,172,8,0.104124395618354,1
588,173,8,0.0844311782692295,1
588,174,8,0.0715494617287087,1
588,175,8,0.0612071893457629,1
588,176,8,0.0556226764729976,1
588,177,8,0.0535294139304389,1
588,178,8,0.0527668265004726,1
589,168,8,0.0933073678184089,1
589,169,8,0.0917846551262333,1
589,170,8,0.0927598403870988,1
589,171,8,0.0959673719051472,1
589,172,8,0.0937844128213129,1
589,173,8,0.0831590716845185,1
589,174,8,0.0750105677620782,1
589,175,8,0.0676819484445083,1
589,176,8,0.0625835526273401,1
589,177,8,0.0601940360774308,1
589,178,8,0.0595415443636608,1
590,169,8,0.0761098508800754,1
590,170,8,0.0714155267060061,1
590,171,8,0.0731045565290706,1
590,172,8,0.0744427274467735,1
590,173,8,0.0699499328541541,1
590,174,8,0.0649440006406238,1
590,175,8,0.0620161610248509,1
590,176,8,0.0600430729786523,1
590,177,8,0.0579763880413202,1
591,170,8,0.0644722941696788,1
591,171,8,0.0637268958921837,1
591,172,8,0.064046937431485,1
591,173,8,0.061651472560406,1
591,174,8,0.0582683390078246,1
591,175,8,0.0575321853648749,1
591,176,8,0.0567829385120775,1
580,166,9,0.0637860569510908,1
581,165,9,0.061258135508509,1
581,166,9,0.0613666837407646,1
581,167,9,0.0596474981154062,1
581,168,9,0.0563956418250048,1
581,170,9,0.0621706678043262,1
582,164,9,0.0554461712601052,1
582,165,9,0.0567947833798614,1
582,166,9,0.0569006450879523,1
582,167,9,0.0551387627123792,1
582,168,9,0.053381833435962,1
582,169,9,0.0538061374248579,1
582,170,9,0.0531332350307104,1
582,171,9,0.0498941152809955,1
583,164,9,0.0527786483573429,1
583,165,9,0.0538893161248517,1
583,166,9,0.054031092116369,1
583,167,9,0.0531208551591849,1
583,168,9,0.0523263861084035,1
583,169,9,0.0525008606081692,1
583,170,9,0.0507123661109991,1
583,171,9,0.0476840234536436,1
584,164,9,0.0570802740323681,1
584,165,9,0.0572421960787562,1
584,166,9,0.0559272949474477,1
584,167,9,0.0543092250292469,1
584,168,9,0.0529782737856911,1
584,169,9,0.0525581922994438,1
584,170,9,0.0506260981958523,1
584,171,9,0.0483451126200134,1
585,164,9,0.0671145971111179,1
585,165,9,0.0660419491256313,1
585,166,9,0.0623031991612982,1
585,167,9,0.0589704537568078,1
585,168,9,0.0568935059520029,1
585,169,9,0.0562196658631256,1
585,170,9,0.0541276919317294,1
585,171,9,0.0513323951783852,1
585,172,9,0.0481012400811457,1
586,165,9,0.0801517236094735,1
586,166,9,0.0794610913063848,1
586,167,9,0.0739487579169048,1
586,168,9,0.0712595759917013,1
586,169,9,0.071027355604216,1
586,170,9,0.0691589499567855,1
586,171,9,0.063370681196678,1
586,172,9,0.0563626614330645,1
586,173,9,0.0491996574135181,1
587,166,9,0.111499163323181,1
587,167,9,0.106853823631472,1
587,168,9,0.102821379623928,1
587,169,9,0.100830095697788,1
587,170,9,0.0998948286193176,1
587,171,9,0.0928197780643404,1
587,172,9,0.0796346396168775,1
587,173,9,0.065260809146562,1
587,174,9,0.0562471063776128,1
587,175,9,0.0500834030564016,1
587,176,9,0.0471253702456001,1
588,167,9,0.122927809701585,1
588,168,9,0.122024907473116,1
588,169,9,0.117236393876888,1
588,170,9,0.11879080410257,1
588,171,9,0.117086949498408,1
588,172,9,0.103209286100212,1
588,173,9,0.0844163132190335,1
588,174,9,0.0735994867645827,1
588,175,9,0.0646720519107803,1
588,176,9,0.0598930993491593,1
588,177,9,0.0587358344815779,1
588,178,9,0.0590529363766647,1
589,168,9,0.102988277780386,1
589,169,9,0.100258044385291,1
589,170,9,0.09968290961037,1
589,171,9,0.0988953265754882,1
589,172,9,0.091399998941498,1
589,173,9,0.0808844946481217,1
589,174,9,0.0752144387039885,1
589,175,9,0.0702014881618054,1
589,176,9,0.0665409522928535,1
589,177,9,0.0658607381809044,1
589,178,9,0.0671090399754796,1
590,169,9,0.0843594590042165,1
590,170,9,0.0773055727370377,1
590,171,9,0.0770894197199848,1
590,172,9,0.0743140446651038,1
590,173,9,0.0686778435276283,1
590,174,9,0.0643373294085919,1
590,175,9,0.0629806749745269,1
590,176,9,0.06195153487396,1
590,177,9,0.0621264350756277,1
591,171,9,0.0719234120858841,1
591,172,9,0.0682941307903513,1
591,173,9,0.063654198663342,1
591,174,9,0.0595526586349374,1
591,175,9,0.0597540213872636,1
591,176,9,0.0594446454064234,1
580,165,10,0.0609240975810007,1
580,166,10,0.0602946455444888,1
580,167,10,0.0588243459608023,1
580,170,10,0.072989174055471,1
581,164,10,0.0584886800111557,1
581,165,10,0.0608582173353178,1
581,166,10,0.060807702627202,1
581,167,10,0.0580805757054456,1
581,168,10,0.0555068050174837,1
581,169,10,0.0573510204419752,1
581,170,10,0.0621269988430113,1
581,171,10,0.0580626732146522,1
582,164,10,0.0537047168230949,1
582,165,10,0.0556870667620239,1
582,166,10,0.0568731240352674,1
582,167,10,0.0555201053255538,1
582,168,10,0.0537678069955018,1
582,169,10,0.05317212922745,1
582,170,10,0.0513867987309021,1
582,171,10,0.0475065287714657,1
583,164,10,0.0518069952717175,1
583,165,10,0.053066934835854,1
583,166,10,0.0537032038555246,1
583,167,10,0.0530669060722119,1
583,168,10,0.0521197883732297,1
583,169,10,0.0515323485122524,1
583,170,10,0.0488770961791759,1
584,164,10,0.056798764267917,1
584,165,10,0.0574936190736543,1
584,166,10,0.0563440110875786,1
584,167,10,0.0543340077832114,1
584,168,10,0.0524648370229032,1
584,169,10,0.0519007992610735,1
584,170,10,0.0498419898089266,1
584,171,10,0.0478442513215168,1
585,164,10,0.066332680513714,1
585,165,10,0.0661569979409835,1
585,166,10,0.0632913223083444,1
585,167,10,0.0601065083147635,1
585,168,10,0.0573843575030766,1
585,169,10,0.0567355072663863,1
585,170,10,0.0550337926771909,1
585,171,10,0.052576462964855,1
585,172,10,0.0487691807470447,1
586,165,10,0.0745564128654938,1
586,166,10,0.0760321947993494,1
586,167,10,0.0741818987409349,1
586,168,10,0.0715427943164884,1
586,169,10,0.0699857320830123,1
586,170,10,0.068126070582756,1
586,171,10,0.0638927758157139,1
586,172,10,0.0568026761232317,1
586,173,10,0.0496434631517036,1
587,166,10,0.0996695862913863,1
587,167,10,0.100608776730628,1
587,168,10,0.0984074837013699,1
587,169,10,0.0926729626827412,1
587,170,10,0.0898014652889572,1
587,171,10,0.0855393723635246,1
587,172,10,0.0753004995209128,1
587,173,10,0.0642123686421996,1
587,174,10,0.0569881440869776,1
587,175,10,0.0526860581936801,1
587,176,10,0.0509621725892156,1
587,177,10,0.0508278118646111,1
587,178,10,0.0510112951370576,1
587,179,10,0.0520888214362308,1
588,167,10,0.119876827181596,1
588,168,10,0.119640228967795,1
588,169,10,0.111615748117017,1
588,170,10,0.109172921032988,1
588,171,10,0.104582174733833,1
588,172,10,0.0925752123216999,1
588,173,10,0.0800011574489549,1
588,174,10,0.0732415289923705,1
588,175,10,0.0674763919531755,1
588,176,10,0.0647196787492372,1
588,177,10,0.0649354923553143,1
588,178,10,0.0670837970032427,1
588,179,10,0.0698408208545149,1
589,168,10,0.111583015092398,1
589,169,10,0.104124671749317,1
589,170,10,0.100550536108265,1
589,171,10,0.0937498791927035,1
589,172,10,0.0831612059467564,1
589,173,10,0.0753829763880413,1
589,174,10,0.0722745241112955,1
589,175,10,0.0695585862462849,1
589,176,10,0.0677302368467317,1
589,177,10,0.0685410436461805,1
589,178,10,0.0718102386599917,1
590,169,10,0.090556683473838,1
590,170,10,0.0801295986160316,1
590,171,10,0.0767921532324351,1
590,172,10,0.0708788316622808,1
590,173,10,0.0653345993938005,1
590,174,10,0.0626044062678047,1
590,175,10,0.0621545083902393,1
590,176,10,0.0621522303097913,1
590,177,10,0.0640297597844706,1
591,172,10,0.0706320453664764,1
591,173,10,0.0637430668117275,1
591,174,10,0.060150113996066,1
591,175,10,0.0605182425920966,1
591,176,10,0.0611082654281273,1
579,165,11,0.0511800226611477,1
579,166,11,0.0516479150731609,1
580,164,11,0.0549345293485794,1
580,165,11,0.0586376641713632,1
580,166,11,0.0588213487893038,1
580,167,11,0.0553792095014824,1
581,164,11,0.055874559686168,1
581,165,11,0.0597056351886573,1
581,166,11,0.0608204679315306,1
581,167,11,0.0579190045754901,1
581,169,11,0.057483321689811,1
581,170,11,0.060650894756365,1
581,171,11,0.0561495113402384,1
582,164,11,0.0527008829747773,1
582,165,11,0.0548119617172032,1
582,166,11,0.0565150512084872,1
582,167,11,0.056427097743918,1
582,168,11,0.0551851527142293,1
582,169,11,0.0540387547506031,1
582,170,11,0.0507584167018734,1
583,164,11,0.0514496242778025,1
583,165,11,0.0524812322988547,1
583,166,11,0.052686242280989,1
583,167,11,0.0525578241248259,1
583,168,11,0.0521931414131094,1
583,169,11,0.0513737860592522,1
583,170,11,0.0482980668071253,1
584,164,11,0.0576241714920553,1
584,165,11,0.0587307433169404,1
584,166,11,0.0568357370533697,1
584,167,11,0.0544187052035039,1
584,168,11,0.0525177448660351,1
584,169,11,0.0518204739143681,1
584,170,11,0.0500681353152173,1
584,171,11,0.0485170559192814,1
585,164,11,0.0650869156723651,1
585,165,11,0.0659271361721437,1
585,166,11,0.0631458243015497,1
585,167,11,0.0603600368082574,1
585,168,11,0.0572960531220747,1
585,169,11,0.0562760828705839,1
585,170,11,0.0553236151341858,1
585,171,11,0.0539761305491969,1
585,172,11,0.0506320407642937,1
585,173,11,0.0467696186447308,1
586,165,11,0.0685863808987326,1
586,166,11,0.0700675013645472,1
586,167,11,0.0710592372250311,1
586,168,11,0.0689706171342944,1
586,169,11,0.0666433048366179,1
586,170,11,0.065514993451094,1
586,171,11,0.0634019300173686,1
586,172,11,0.0575941192388726,1
586,173,11,0.0510185895966739,1
587,166,11,0.0847138903539171,1
587,167,11,0.0887650825033297,1
587,168,11,0.0894764303814013,1
587,169,11,0.0843885447990273,1
587,170,11,0.0808674493138606,1
587,171,11,0.0770856114137813,1
587,172,11,0.0695510329138904,1
587,173,11,0.0620964461024575,1
587,174,11,0.0568101259065149,1
587,175,11,0.0542811747255488,1
587,176,11,0.0534688837221718,1
587,177,11,0.0549203258621499,1
587,178,11,0.0583248768225794,1
587,179,11,0.0638567982522751,1
588,167,11,0.115471134649742,1
588,168,11,0.112172244051909,1
588,169,11,0.102883543607062,1
588,170,11,0.0969343940444074,1
588,171,11,0.0888794755076438,1
588,172,11,0.0798523056015007,1
588,173,11,0.0735493517365416,1
588,174,11,0.0699154394946435,1
588,175,11,0.0677098491772678,1
588,176,11,0.0668964076282099,1
588,177,11,0.0695932464349192,1
588,178,11,0.0756298202111297,1
588,179,11,0.0846213577175383,1
589,168,11,0.125147039738007,1
589,169,11,0.105838444057247,1
589,170,11,0.0954392829431143,1
589,171,11,0.0833958079638011,1
589,172,11,0.0734355052414259,1
589,173,11,0.0695917967473613,1
589,174,11,0.0687071364206616,1
589,175,11,0.0680253748247719,1
589,176,11,0.0667237912597187,1
589,177,11,0.0691062779755182,1
589,178,11,0.0742054561637493,1
589,179,11,0.0808671961938108,1
590,169,11,0.0962671235713674,1
590,170,11,0.0833271721612126,1
590,171,11,0.0758820946098316,1
590,172,11,0.0675496184330304,1
590,173,11,0.0640343389562802,1
590,174,11,0.0642696197952765,1
590,175,11,0.0644211984359942,1
590,176,11,0.063188544062678,1
590,177,11,0.065930443990976,1
590,178,11,0.0706152416468083,1
591,173,11,0.0650873068578966,1
591,174,11,0.0643850828070737,1
591,175,11,0.0649010220067174,1
591,176,11,0.0650719125566874,1
591,177,11,0.0702042839878097,1
579,165,12,0.0472768597190275,1
579,166,12,0.049017773399568,1
580,164,12,0.0502057348259132,1
580,165,12,0.0545564945542372,1
580,166,12,0.0570391880461065,1
580,167,12,0.0540409925619523,1
581,164,12,0.0525527962402008,1
581,165,12,0.0562387188995997,1
581,166,12,0.0593055559390708,1
581,167,12,0.0580786945632575,1
581,170,12,0.0564438669472157,1
582,164,12,0.0515862170610277,1
582,165,12,0.0531485027718947,1
582,166,12,0.055450894250125,1
582,167,12,0.0565773820207448,1
582,168,12,0.0554916868472379,1
582,169,12,0.0528217823149163,1
582,170,12,0.0481553559972424,1
583,164,12,0.0516645979855326,1
583,165,12,0.0523718614264373,1
583,166,12,0.0524766933961439,1
583,167,12,0.052566539508358,1
583,168,12,0.0521433745596862,1
583,169,12,0.050166518476383,1
583,170,12,0.046848643874817,1
584,164,12,0.0574132477051216,1
584,165,12,0.058683053198471,1
584,166,12,0.0571259909649949,1
584,167,12,0.0545843607706263,1
584,168,12,0.0525202012810636,1
584,169,12,0.0507940778652499,1
584,170,12,0.0492928286027497,1
584,171,12,0.0477197565261252,1
585,164,12,0.0634268220731729,1
585,165,12,0.0649752609667713,1
585,166,12,0.0633235088237649,1
585,167,12,0.0609521766483408,1
585,168,12,0.0578930770285731,1
585,169,12,0.0557285324283601,1
585,170,12,0.055260640016347,1
585,171,12,0.054329060436784,1
585,172,12,0.0518087268429671,1
585,173,12,0.0479930859107858,1
586,165,12,0.0653342139609974,1
586,166,12,0.0671028960615441,1
586,167,12,0.0695194964567795,1
586,168,12,0.0685121994659627,1
586,169,12,0.0656986895744914,1
586,170,12,0.0645897418727754,1
586,171,12,0.0627406941564245,1
586,172,12,0.0584975852347251,1
586,173,12,0.0530117604177309,1
586,174,12,0.0490011537672087,1
586,179,12,0.0474283520688192,1
586,180,12,0.0477472747024459,1
587,166,12,0.0767678882240269,1
587,167,12,0.0817504298438664,1
587,168,12,0.0845162668750535,1
587,169,12,0.0811479293399273,1
587,170,12,0.0771267606800553,1
587,171,12,0.0721839704134877,1
587,172,12,0.0662848753406766,1
587,173,12,0.0612474641973195,1
587,174,12,0.058234541728451,1
587,175,12,0.056765674574137,1
587,176,12,0.0564012967570259,1
587,177,12,0.0580606079851552,1
587,178,12,0.0615525256318567,1
587,179,12,0.0682628762169322,1
588,167,12,0.117100560453812,1
588,168,12,0.107957381026673,1
588,169,12,0.0964512223857531,1
588,170,12,0.0873117994902622,1
588,171,12,0.0776086092111767,1
588,172,12,0.070962257729596,1
588,173,12,0.0678257493964237,1
588,174,12,0.0663681518370533,1
588,175,12,0.0661571820282924,1
588,176,12,0.067277002386692,1
588,177,12,0.0713994133137464,1
588,178,12,0.0783832773707914,1
588,179,12,0.089765936438334,1
589,168,12,0.132381693989825,1
589,169,12,0.102774276283756,1
589,170,12,0.0877306844090015,1
589,171,12,0.0748639709841584,1
589,172,12,0.067910044125728,1
589,173,12,0.0667488961664738,1
589,174,12,0.0673027573517568,1
589,175,12,0.0668677820516715,1
589,176,12,0.0665339282114721,1
589,177,12,0.0710604683089096,1
589,178,12,0.0789694228678778,1
589,179,12,0.0886717099686039,1
590,169,12,0.0973324943554229,1
590,170,12,0.0855735550757013,1
590,171,12,0.0757950730872638,1
590,172,12,0.0680284640399249,1
590,173,12,0.0668139192556246,1
590,174,12,0.0696082207869548,1
590,175,12,0.0693903822204795,1
590,176,12,0.0682283368355944,1
590,177,12,0.0749272394911459,1
590,178,12,0.0874031240536762,1
591,175,12,0.0696770464295806,1
591,176,12,0.0703535155153386,1
591,177,12,0.0789973408588225,1
580,165,13,0.0509383735518081,1
580,166,13,0.0546327124528621,1
581,164,13,0.0496539158592137,1
581,165,13,0.052852789521014,1
581,166,13,0.0562523816295593,1
582,164,13,0.0508023675468801,1
582,165,13,0.0520068220455598,1
582,166,13,0.0537522458651689,1
582,167,13,0.055608599546593,1
582,168,13,0.0549531681886085,1
582,169,13,0.0519263989024715,1
582,170,13,0.0473202928184779,1
583,164,13,0.0514674289722129,1
583,165,13,0.0520037615940488,1
583,166,13,0.0519915543043755,1
583,167,13,0.0523951944928441,1
583,168,13,0.0517652189580474,1
583,169,13,0.0494756503114297,1
584,164,13,0.0555840584072214,1
584,165,13,0.0568457698117063,1
584,166,13,0.0558342445655125,1
584,167,13,0.0543933299185138,1
584,168,13,0.0523087770067588,1
584,169,13,0.0503037728233747,1
584,170,13,0.0491124000290858,1
584,171,13,0.0482653625461484,1
585,164,13,0.060920427340279,1
585,165,13,0.0621673945018643,1
585,166,13,0.0608103431295395,1
585,167,13,0.0594906384700136,1
585,168,13,0.0566962448950288,1
585,169,13,0.054533696491572,1
585,170,13,0.0541927725481641,1
585,171,13,0.0539670354855901,1
585,172,13,0.0524494887435213,1
585,173,13,0.0497449930553063,1
585,174,13,0.0470258595496672,1
586,165,13,0.0639461841462169,1
586,166,13,0.0640061908561993,1
586,167,13,0.0657486865370508,1
586,168,13,0.0651989615634903,1
586,169,13,0.0638739298774623,1
586,170,13,0.0632125962201353,1
586,171,13,0.0617122731469081,1
586,172,13,0.0588510328678686,1
586,173,13,0.0552333835891687,1
586,174,13,0.0520225212413744,1
586,175,13,0.0489520599830087,1
586,177,13,0.0468759089310878,1
586,178,13,0.0488193157750858,1
586,179,13,0.0508663321340045,1
586,180,13,0.0518576480453149,1
587,167,13,0.0776260629891545,1
587,168,13,0.0795808573590282,1
587,169,13,0.0779764329126018,1
587,170,13,0.0745320212970608,1
587,171,13,0.0695088539092321,1
587,172,13,0.0640961117538826,1
587,173,13,0.0602577590499622,1
587,174,13,0.0578184756466297,1
587,175,13,0.0570792097776133,1
587,176,13,0.0570060695886845,1
587,177,13,0.0593518941663652,1
587,178,13,0.0637951405092407,1
587,179,13,0.070464382097141,1
587,180,13,0.0744091372656223,1
588,167,13,0.116965267787206,1
588,168,13,0.103429661619913,1
588,169,13,0.0900926626480407,1
588,170,13,0.0798387464206524,1
588,171,13,0.0711909056727425,1
588,172,13,0.0659870163221012,1
588,173,13,0.0641288965530572,1
588,174,13,0.0630413547537326,1
588,175,13,0.0636675277350542,1
588,176,13,0.0656348918164907,1
588,177,13,0.0706904758288761,1
588,178,13,0.0793752490931399,1
588,179,13,0.0916668162376052,1
588,180,13,0.100267524881701,1
589,168,13,0.134406113631573,1
589,169,13,0.10152114795005,1
589,170,13,0.0836740616839755,1
589,171,13,0.0717288720694451,1
589,172,13,0.067542393006155,1
589,173,13,0.068698300229833,1
589,174,13,0.0703446390554112,1
589,175,13,0.0707755126601445,1
589,176,13,0.0720491207069689,1
589,177,13,0.0778090170105878,1
589,178,13,0.0891057073048605,1
589,179,13,0.104135406340519,1
589,180,13,0.11596845802027,1
590,169,13,0.100634364866569,1
590,171,13,0.0780467830282546,1
590,172,13,0.0743803045908614,1
590,173,13,0.0763795100240142,1
590,175,13,0.0799655365546772,1
590,176,13,0.0805498009095754,1
590,177,13,0.0888559353430145,1
590,178,13,0.106635530599453,1
590,179,13,0.127664801862227,1
591,177,13,0.0856484440940649,1
591,178,13,0.101926588742509,1
581,165,14,0.0487035421159548,1
582,165,14,0.0502577567488709,1
582,166,14,0.0506213119258202,1
582,167,14,0.0515395509282142,1
582,168,14,0.0504520896670873,1
582,169,14,0.0475411860837358,1
583,164,14,0.0511407257734198,1
583,165,14,0.0514575285266296,1
583,166,14,0.0511741491254472,1
583,167,14,0.0510060659069383,1
583,168,14,0.0493109036753952,1
584,165,14,0.0540133219383289,1
584,166,14,0.054082279893708,1
584,167,14,0.0532725948762979,1
584,168,14,0.0509411751305409,1
584,169,14,0.048571114308094,1
584,170,14,0.047707721818304,1
584,171,14,0.0474611052279875,1
585,165,14,0.0586922115420902,1
585,166,14,0.0579821637806379,1
585,167,14,0.0569404252048662,1
585,168,14,0.0551061159786864,1
585,169,14,0.0534758560289974,1
585,170,14,0.0533222524278815,1
585,171,14,0.0528896472518986,1
585,172,14,0.0520112861628013,1
585,173,14,0.0507607062877782,1
585,174,14,0.0499277227203318,1
585,179,14,0.0470566165120793,1
585,180,14,0.0469196440487795,1
586,166,14,0.0614505009936112,1
586,167,14,0.0616828651993067,1
586,168,14,0.0618888646507265,1
586,169,14,0.0621437220244818,1
586,170,14,0.0622932757048013,1
586,171,14,0.0604105285054596,1
586,172,14,0.0590756136320334,1
586,173,14,0.0577934225144301,1
586,174,14,0.0573981870621598,1
586,175,14,0.0568200378575551,1
586,176,14,0.0552931486845581,1
586,177,14,0.0544129237114579,1
586,178,14,0.0562932432594131,1
586,179,14,0.0590349533476737,1
586,180,14,0.0601198086228336,1
587,167,14,0.073766465459238,1
587,168,14,0.0745839109072651,1
587,169,14,0.073685035588679,1
587,170,14,0.0715864402668898,1
587,171,14,0.0670463812577029,1
587,172,14,0.0637393793128205,1
587,173,14,0.06164298728601,1
587,174,14,0.0607271241604468,1
587,175,14,0.0606083935989161,1
587,176,14,0.0609715288266919,1
587,177,14,0.0625679282169948,1
587,178,14,0.0671844352339428,1
587,179,14,0.0730655012559357,1
588,168,14,0.0958396670873062,1
588,169,14,0.0829307056250639,1
588,170,14,0.0735300283218325,1
588,171,14,0.066359235108027,1
588,172,14,0.0629614378507438,1
588,173,14,0.0618022170555051,1
588,174,14,0.0617725617405823,1
588,175,14,0.0629151111289062,1
588,176,14,0.0668190161729905,1
588,177,14,0.0721111408718927,1
588,178,14,0.0817216316854758,1
588,179,14,0.093333979940006,1
588,180,14,0.101359645852835,1
589,169,14,0.0964299257852014,1
589,170,14,0.0783796358937117,1
589,171,14,0.0681142027040585,1
589,172,14,0.0661971980070708,1
589,173,14,0.0691910559340084,1
589,174,14,0.0735154911771555,1
589,175,14,0.0774680988199083,1
589,176,14,0.0841982963179777,1
589,177,14,0.092404735968175,1
589,178,14,0.109201454565872,1
589,179,14,0.129569610774998,1
589,180,14,0.13602715195763,1
590,172,14,0.0753488224395066,1
590,176,14,0.0949328932726213,1
590,177,14,0.106718669030348,1
590,178,14,0.131208816217356,1
590,179,14,0.15858807565252,1
591,177,14,0.0895170676548473,1
591,178,14,0.105022177918543,1
582,166,15,0.0494490957171167,1
582,167,15,0.0500076166124069,1
582,168,15,0.0489903674014512,1
582,169,15,0.0468223567823747,1
583,165,15,0.0512190031488134,1
583,166,15,0.0509767787666334,1
583,167,15,0.0510270230965142,1
583,168,15,0.0493853439809433,1
583,169,15,0.0471757411355057,1
584,165,15,0.0522775109278829,1
584,166,15,0.0529082975973845,1
584,167,15,0.0528845560872611,1
584,168,15,0.051416897005912,1
584,169,15,0.0498498883050253,1
584,170,15,0.0486269502899835,1
584,171,15,0.0474353876556573,1
585,166,15,0.0557149272256846,1
585,167,15,0.0548619874434047,1
585,168,15,0.0546488833724059,1
585,169,15,0.0546229500727605,1
585,170,15,0.0540096862139776,1
585,171,15,0.0522520033301394,1
585,172,15,0.0513462535011105,1
585,173,15,0.0509614477454367,1
585,178,15,0.0513666296651176,1
585,179,15,0.0532521324213648,1
585,180,15,0.0531303586665084,1
585,181,15,0.0517322960933912,1
586,167,15,0.0594889471678628,1
586,168,15,0.0599337941498894,1
586,169,15,0.0612348542166579,1
586,170,15,0.0611562086666464,1
586,171,15,0.0585769038539599,1
586,172,15,0.0576318226208326,1
586,173,15,0.0581122444753098,1
586,174,15,0.0592617776759161,1
586,176,15,0.0601850790793057,1
586,177,15,0.0593020410220159,1
586,178,15,0.0623604330561899,1
586,179,15,0.0665119527889688,1
586,180,15,0.0671002210428362,1
587,168,15,0.0713992062155239,1
587,169,15,0.070897643084162,1
587,170,15,0.0697024274672992,1
587,171,15,0.0655325737890967,1
587,172,15,0.062606247140894,1
587,173,15,0.0616614938132858,1
587,174,15,0.0609943901693695,1
587,175,15,0.0608852954279155,1
587,176,15,0.0613130222902118,1
587,177,15,0.0625773454333921,1
587,178,15,0.0677163037385371,1
587,179,15,0.0732096013497281,1
588,169,15,0.0800400171293241,1
588,170,15,0.0724703757498106,1
588,171,15,0.066540233201803,1
588,172,15,0.0631159618884044,1
588,173,15,0.0619109953968968,1
588,174,15,0.0618509944396428,1
588,175,15,0.0631557420053183,1
588,176,15,0.0680356894668003,1
588,177,15,0.0735484830745526,1
588,178,15,0.0831308085298696,1
588,179,15,0.0925785661623595,1
588,180,15,0.101837064783085,1
589,170,15,0.07774654238012,1
589,171,15,0.0688727287077715,1
589,172,15,0.0676200145705105,1
589,173,15,0.0697970886131875,1
589,174,15,0.073318465982046,1
589,175,15,0.0790092029847916,1
589,176,15,0.0908212572058676,1
589,177,15,0.102937228068528,1
589,178,15,0.121153944392747,1
589,179,15,0.138643596384893,1
589,180,15,0.142988379028406,1
590,176,15,0.0948820218953445,1
590,177,15,0.110141001674274,1
590,178,15,0.133256166234522,1
590,179,15,0.15450843626115,1
591,178,15,0.0945802395159976,1
582,165,16,0.0475690724346743,1
582,166,16,0.0470296362158645,1
582,167,16,0.0468993858157047,1
583,164,16,0.048888503839601,1
583,165,16,0.0500132312753293,1
583,166,16,0.049960800908655,1
583,167,16,0.0495851592493288,1
583,168,16,0.0491840099922591,1
583,169,16,0.0489743345473891,1
584,165,16,0.0504385362389674,1
584,166,16,0.0515252899145007,1
584,167,16,0.0516456082290709,1
584,168,16,0.0521358442382053,1
584,169,16,0.0526255279854129,1
584,170,16,0.0513101953994741,1
584,171,16,0.04763436590206,1
585,166,16,0.0537074838854572,1
585,167,16,0.0534582929491799,1
585,168,16,0.0550479904108921,1
585,169,16,0.0565308482006846,1
585,170,16,0.0558087599786827,1
585,171,16,0.0522243844810717,1
585,172,16,0.0513637302900019,1
585,173,16,0.0516848590949716,1
585,179,16,0.0585607962144286,1
585,180,16,0.0587375603000991,1
586,167,16,0.0586771796627705,1
586,168,16,0.059365217485349,1
586,169,16,0.0603666064240948,1
586,170,16,0.0603016523676849,1
586,171,16,0.0576256787068971,1
586,172,16,0.0572463495486639,1
586,173,16,0.0587535011105067,1
586,174,16,0.0614829348763532,1
587,168,16,0.0694057592635035,1
587,169,16,0.0684178086983094,1
587,170,16,0.0685567370892667,1
587,171,16,0.0667269782712545,1
587,172,16,0.0638485200761017,1
587,173,16,0.0628927157572293,1
587,174,16,0.0632793623859924,1
587,176,16,0.0635602796194179,1
587,178,16,0.0698899088859865,1
588,169,16,0.077841583206083,1
588,170,16,0.0731992176749589,1
588,171,16,0.0707967114643133,1
588,172,16,0.0671368889336835,1
588,173,16,0.0645592466595057,1
588,174,16,0.064516521145649,1
588,176,16,0.0716824475512246,1
588,177,16,0.0776106916988589,1
588,178,16,0.0872015024285718,1
588,179,16,0.0946119140385902,1
589,171,16,0.0714518091640503,1
589,172,16,0.0711845719187696,1
589,173,16,0.0720245335457701,1
589,176,16,0.0917365278004052,1
589,177,16,0.106866640710356,1
589,178,16,0.124666008094319,1
589,179,16,0.135127367707957,1
590,178,16,0.12181366728612,1
583,165,17,0.0481597050599158,1
583,166,17,0.0484083178469885,1
583,167,17,0.0480907355990799,1
583,168,17,0.0493753572444339,1
584,164,17,0.0487858694121448,1
584,165,17,0.0494122955135161,1
584,166,17,0.0504789721669193,1
584,167,17,0.0511378551619462,1
584,168,17,0.0529070550080492,1
584,169,17,0.0550227416859268,1
584,170,17,0.0532662093477695,1
584,171,17,0.0485333418933932,1
585,165,17,0.0530411741180607,1
585,166,17,0.0531944210500156,1
585,167,17,0.0540313509891471,1
585,168,17,0.0558954363375462,1
585,169,17,0.0573278599574206,1
585,170,17,0.0559596310338067,1
585,171,17,0.0525099729299612,1
585,172,17,0.0522246893756771,1
586,168,17,0.0598470717691987,1
586,169,17,0.0599958085620848,1
586,170,17,0.0595183838791062,1
586,171,17,0.0583969527567535,1
586,172,17,0.0582292204546772,1
586,173,17,0.059893450265592,1
587,168,17,0.0722186651184924,1
587,169,17,0.0719117397999523,1
587,170,17,0.072609419195336,1
587,171,17,0.0749432665924795,1
587,172,17,0.0717480804295862,1
587,173,17,0.0683554893915086,1
587,174,17,0.0698419081201832,1
588,169,17,0.0883504143345106,1
588,170,17,0.0841265655475079,1
588,171,17,0.0873839732208192,1
588,172,17,0.0832367737870717,1
588,173,17,0.0762060307462623,1
588,178,17,0.0964296611596948,1
589,178,17,0.114085221839014,1
583,168,18,0.0483060573468785,1
584,164,18,0.0471567657608651,1
584,165,18,0.0477167277146205,1
584,166,18,0.04884759618792,1
584,167,18,0.0506489537858015,1
584,168,18,0.0532829210237832,1
584,169,18,0.0555824936650955,1
584,170,18,0.0538560193328492,1
584,171,18,0.0495173460869021,1
585,165,18,0.0521297693570106,1
585,166,18,0.0526871857284473,1
585,167,18,0.0553343727363014,1
585,168,18,0.0573867448853642,1
585,169,18,0.057452095880034,1
585,170,18,0.0555582976894281,1
585,171,18,0.0528084532432042,1
585,172,18,0.0529429692914756,1
586,168,18,0.0612965464760627,1
586,169,18,0.0602956695301448,1
586,170,18,0.0595920705772334,1
586,171,18,0.0595089148881532,1
586,172,18,0.0593887518972498,1
586,173,18,0.0607289132589805,1
587,168,18,0.0739410895299423,1
587,169,18,0.0755887917521522,1
587,170,18,0.0767750158545195,1
587,171,18,0.0813834748044302,1
587,172,18,0.0779182095484246,1
587,173,18,0.0722191771113204,1
588,168,18,0.0975539628935211,1
588,169,18,0.0996129794438907,1
588,170,18,0.0960098212880405,1
588,171,18,0.101418392715297,1
588,172,18,0.0964388310087708,1
588,173,18,0.0844994631553853,1
589,169,18,0.0982122821211644,1
589,170,18,0.0880766304843061,1
589,171,18,0.0874373585404085,1
589,172,18,0.08426385441087,1
584,165,19,0.0473408559461581,1
584,166,19,0.0478934975530194,1
584,167,19,0.0503903859022257,1
585,169,19,0.0579823593734036,1
585,170,19,0.0557652003192074,1
585,171,19,0.0536132311832856,1
586,169,19,0.0597726602272926,1
586,170,19,0.0597506330302336,1
586,171,19,0.0613736330366766,1
586,172,19,0.0635416637903025,1
587,168,19,0.0726495904977813,1
587,169,19,0.0780721122914176,1
587,170,19,0.0825093297749257,1
587,171,19,0.0884737125623941,1
587,172,19,0.0884963150322935,1
587,173,19,0.0852472430624397,1
588,169,19,0.110107635849531,1
588,170,19,0.111313269657533,1
588,171,19,0.1149217375817,1
588,172,19,0.111003864913051,1
587,169,20,0.07694662549554,1
587,170,20,0.0834043565182095,1
587,171,20,0.0883363143971923,1
587,172,20,0.0922508504833673,1
