x,y,z,fucci_ch00,fucci_ch02,cellCycle
170,989,30,0.00202944991226062,0.00825513084611276,2
170,990,30,0.00178530556191348,0.00929274433508812,2
169,989,31,0.0021515220874342,0.00836194399938964,2
170,989,31,0.00227359426260777,0.00833142595559625,2
169,990,31,0.00222781719691768,0.00787365529869535,2
170,990,31,0.0021515220874342,0.0150911726558328,2
169,991,31,0.00227359426260777,0.00854505226215,2
167,988,32,0.00202944991226062,0.00859082932784009,2
169,989,32,0.00244144350347143,0.00866712443732357,2
170,989,32,0.00219729915312428,0.00805676356145571,2
169,990,32,0.00199893186846723,0.0081025406271458,2
170,990,32,0.00265506981002518,0.00872816052491035,2
166,989,33,0.00236514839398795,0.00791943236438544,2
167,989,33,0.00239566643778134,0.00793469138628214,2
170,989,33,0.00210574502174411,0.0119478141451133,2
169,990,33,0.00234988937209125,0.0241092545967803,2
170,990,33,0.0021515220874342,0.00828564888990616,2
169,991,33,0.00228885328450446,0.0093690394445716,2
170,991,33,0.00233463035019455,0.00872816052491035,2
166,989,34,0.00173952849622339,0.00961318379491875,2
167,989,34,0.0021210040436408,0.00999465934233616,2
170,989,34,0.00202944991226062,0.00854505226215,2
168,990,34,0.0258793011367971,0.00831616693369955,2
169,990,34,0.00407415884641794,0.00845349813076982,2
170,990,34,0.00242618448157473,0.00878919661249714,2
171,990,34,0.00186160067139696,0.00866712443732357,2
169,991,34,0.00195315480277714,0.00787365529869535,2
170,991,34,0.00236514839398795,0.00796520943007553,2
169,990,35,0.00170901045243,0.00820935378042268,2
170,990,35,0.00210574502174411,0.0089417868314641,2
171,990,35,0.00218204013122759,0.00874341954680705,2
172,990,35,0.00170901045243,0.00793469138628214,2
169,991,35,0.0021362630655375,0.0144960708018616,2
170,991,35,0.00990310521095598,0.00854505226215,2
166,990,36,0.00250247959105821,0.0106507972838941,2
168,991,36,0.0100404364080262,0.00991836423285267,2
169,991,36,0.00161745632104982,0.0081177996490425,2
170,991,36,0.00202944991226062,0.00790417334248875,2
169,992,36,0.00177004654001678,0.00839246204318303,2
170,992,36,0.00173952849622339,0.0097962920576791,2
166,991,37,0.00202944991226062,0.0132295719844358,2
168,991,37,0.00419623102159152,0.0151674677653162,2
169,991,37,0.00250247959105821,0.00749217975127794,2
170,991,37,0.0016937514305333,0.00886549172198062,2
169,992,37,0.0128786144808118,0.00842298008697642,2
170,992,37,0.0021515220874342,0.00816357671473259,2
166,991,38,0.00231937132829786,0.0226291294728008,2
169,991,38,0.00224307621881437,0.00886549172198062,2
168,992,38,0.00244144350347143,0.00848401617456321,2
169,992,38,0.00175478751812009,0.00805676356145571,2
170,992,38,0.00193789578088045,0.00836194399938964,2
168,993,38,0.00238040741588464,0.0143892576485847,2
164,992,39,0.00193789578088045,0.00843823910887312,2
168,992,39,0.00210574502174411,0.0080872816052491,2
169,992,39,0.00198367284657053,0.00883497367818723,2
170,992,39,0.00239566643778134,0.00854505226215,2
168,993,39,0.00228885328450446,0.00840772106507973,2
164,992,40,0.00183108262760357,0.00856031128404669,2
165,992,40,0.00209048599984741,0.00857557030594339,2
167,992,40,0.00201419089036393,0.00842298008697642,2
168,992,40,0.00167849240863661,0.00819409475852598,2
169,992,40,0.00218204013122759,0.00842298008697642,2
170,992,40,0.0021362630655375,0.0150911726558328,2
168,993,40,0.00204470893415732,0.00862134737163348,2
164,993,41,0.00227359426260777,0.0120546272983902,2
165,993,41,0.00253299763485161,0.00953688868543526,2
166,993,41,0.00190737773708705,0.0120393682764935,2
167,993,41,0.0246738384069581,0.00839246204318303,2
168,993,41,0.00195315480277714,0.00831616693369955,2
169,993,41,0.00222781719691768,0.00827038986800946,2
164,994,41,0.00245670252536812,0.00772106507972839,2
165,994,41,0.00193789578088045,0.00816357671473259,2
166,994,41,0.00230411230640116,0.00880445563439384,2
164,993,42,0.00199893186846723,0.00842298008697642,2
165,993,42,0.00263981078812848,0.00822461280231937,2
166,993,42,0.013321126115816,0.00991836423285267,2
167,993,42,0.00207522697795071,0.00827038986800946,2
164,994,42,0.0021362630655375,0.0113221942473487,2
165,994,42,0.00186160067139696,0.0112458991378653,2
166,994,42,0.00207522697795071,0.00842298008697642,2
170,991,30,0.00209048599984741,0.00842298008697642,2
170,991,31,0.00694285496299687,0.0123903257801175,2
169,992,31,0.00222781719691768,0.00842298008697642,2
170,988,32,0.00164797436484321,0.00900282291905089,2
170,991,32,0.0021210040436408,0.00807202258335241,2
169,992,32,0.00219729915312428,0.00840772106507973,2
174,985,34,0.00331120775158312,0.0085297932402533,2
173,986,34,0.0192111085679408,0.00848401617456321,2
174,986,34,0.00195315480277714,0.00820935378042268,2
173,987,34,0.00181582360570687,0.00881971465629053,2
174,987,34,0.00242618448157473,0.00866712443732357,2
173,988,34,0.00236514839398795,0.00830090791180285,2
171,989,34,0.00236514839398795,0.00869764248111696,2
172,989,34,0.00222781719691768,0.00862134737163348,2
172,990,34,0.00230411230640116,0.00791943236438544,2
169,992,34,0.00170901045243,0.00888075074387732,2
168,993,34,0.00265506981002518,0.0100404364080262,2
173,987,35,0.00219729915312428,0.0114137483787289,2
174,987,35,0.00230411230640116,0.00848401617456321,2
171,988,35,0.00189211871519036,0.0128328374151217,2
172,988,35,0.00244144350347143,0.0101319905394064,2
173,988,35,0.00146486610208286,0.00849927519645991,2
171,989,35,0.0021362630655375,0.00796520943007553,2
172,989,35,0.0021362630655375,0.00871290150301366,2
169,992,35,0.00222781719691768,0.0166781109330892,2
168,993,35,0.00222781719691768,0.00881971465629053,2
173,987,36,0.00234988937209125,0.00814831769283589,2
174,987,36,0.0021210040436408,0.0128633554589151,2
171,988,36,0.00227359426260777,0.0081177996490425,2
172,988,36,0.00195315480277714,0.0105439841306172,2
173,988,36,0.00238040741588464,0.00823987182421607,2
174,988,36,0.00234988937209125,0.012970168612192,2
171,989,36,0.00141908903639277,0.0118257419699397,2
172,989,36,0.00224307621881437,0.00788891432059205,2
170,990,36,0.0021362630655375,0.00831616693369955,2
171,990,36,0.00201419089036393,0.0085297932402533,2
172,990,36,0.00233463035019455,0.0306248569466697,2
171,991,36,0.00233463035019455,0.00831616693369955,2
169,993,36,0.00250247959105821,0.00856031128404669,2
168,994,36,0.00196841382467384,0.00883497367818723,2
174,987,37,0.00239566643778134,0.00839246204318303,2
171,988,37,0.00205996795605402,0.0127260242618448,2
172,988,37,0.0130769817654688,0.0089723048752575,2
173,988,37,0.00163271534294652,0.00891126878767071,2
174,988,37,0.00141908903639277,0.00831616693369955,2
171,989,37,0.00201419089036393,0.00817883573662928,2
172,989,37,0.00198367284657053,0.00828564888990616,2
173,989,37,0.00187685969329366,0.0085145342183566,2
174,989,37,0.00204470893415732,0.00805676356145571,2
171,990,37,0.00205996795605402,0.00845349813076982,2
172,990,37,0.00219729915312428,0.00822461280231937,2
171,991,37,0.00157167925535973,0.010605020218204,2
172,991,37,0.00233463035019455,0.0108796826123445,2
168,994,37,0.00119020370794232,0.0089417868314641,2
172,988,38,0.00175478751812009,0.0108949416342412,2
172,989,38,0.00236514839398795,0.00837720302128634,2
171,990,38,0.00180056458381018,0.00799572747386892,2
172,990,38,0.00177004654001678,0.0111696040283818,2
170,991,38,0.0021515220874342,0.00872816052491035,2
171,991,38,0.00230411230640116,0.00862134737163348,2
167,994,38,0.0021362630655375,0.0089723048752575,2
168,994,38,0.00227359426260777,0.00901808194094758,2
168,995,38,0.00227359426260777,0.00857557030594339,2
170,989,39,0.00209048599984741,0.0085297932402533,2
171,989,39,0.00183108262760357,0.00856031128404669,2
172,989,39,0.0016937514305333,0.00848401617456321,2
173,989,39,0.00231937132829786,0.00793469138628214,2
174,989,39,0.00250247959105821,0.00823987182421607,2
170,990,39,0.00242618448157473,0.00822461280231937,2
171,990,39,0.00244144350347143,0.00802624551766232,2
172,990,39,0.00189211871519036,0.00845349813076982,2
173,990,39,0.00230411230640116,0.00846875715266651,2
169,991,39,0.00216678110933089,0.0131227588311589,2
170,991,39,0.00167849240863661,0.00856031128404669,2
167,994,39,0.00247196154726482,0.00862134737163348,2
168,994,39,0.00196841382467384,0.00831616693369955,2
172,989,40,0.00181582360570687,0.00868238345922026,2
173,989,40,0.00189211871519036,0.00839246204318303,2
174,989,40,0.00186160067139696,0.00817883573662928,2
170,990,40,0.00167849240863661,0.0136568245975433,2
171,990,40,0.00244144350347143,0.00865186541542687,2
172,990,40,0.00201419089036393,0.00863660639353018,2
173,990,40,0.00228885328450446,0.0135805294880598,2
171,991,40,0.00196841382467384,0.00842298008697642,2
168,994,40,0.00167849240863661,0.0081177996490425,2
169,994,40,0.00216678110933089,0.00750743877317464,2
173,989,41,0.00201419089036393,0.00834668497749294,2
174,989,41,0.0017242694743267,0.0085297932402533,2
171,990,41,0.0021362630655375,0.00830090791180285,2
172,990,41,0.0021515220874342,0.00799572747386892,2
173,990,41,0.002563515678645,0.00788891432059205,2
174,990,41,0.00274662394140536,0.00802624551766232,2
171,991,41,0.00286869611657893,0.00833142595559625,2
172,991,41,0.00181582360570687,0.00807202258335241,2
173,991,41,0.00199893186846723,0.00862134737163348,2
169,992,41,0.00152590218966964,0.00790417334248875,2
170,992,41,0.00209048599984741,0.00833142595559625,2
170,993,41,0.00207522697795071,0.00820935378042268,2
167,994,41,0.0254062714579995,0.00839246204318303,2
168,994,41,0.00233463035019455,0.00773632410162509,2
169,994,41,0.00187685969329366,0.00988784618905928,2
170,994,41,0.0021515220874342,0.00891126878767071,2
169,995,41,0.00161745632104982,0.00834668497749294,2
170,995,41,0.00205996795605402,0.00828564888990616,2
170,996,41,0.00209048599984741,0.0158388647287709,2
174,989,42,0.00201419089036393,0.00825513084611276,2
170,990,42,0.0021362630655375,0.00805676356145571,2
171,990,42,0.0127565423056382,0.00805676356145571,2
172,990,42,0.00227359426260777,0.00869764248111696,2
173,990,42,0.0016937514305333,0.00907911802853437,2
174,990,42,0.00189211871519036,0.00823987182421607,2
168,991,42,0.00207522697795071,0.00846875715266651,2
169,991,42,0.0025482566567483,0.00883497367818723,2
170,991,42,0.00233463035019455,0.00869764248111696,2
171,991,42,0.00205996795605402,0.00839246204318303,2
172,991,42,0.00160219729915312,0.00843823910887312,2
173,991,42,0.00225833524071107,0.00840772106507973,2
169,992,42,0.00219729915312428,0.00793469138628214,2
170,992,42,0.00224307621881437,0.00872816052491035,2
168,993,42,0.0171206225680934,0.00892652780956741,2
169,993,42,0.00309758144502937,0.00834668497749294,2
170,993,42,0.00204470893415732,0.0080872816052491,2
167,994,42,0.00236514839398795,0.00759899290455482,2
168,994,42,0.00251773861295491,0.00848401617456321,2
169,994,42,0.00202944991226062,0.0126955062180514,2
168,995,42,0.00218204013122759,0.0148928053711757,2
169,995,42,0.00184634164950027,0.00796520943007553,2
169,996,42,0.00195315480277714,0.00828564888990616,2
170,996,42,0.00227359426260777,0.00764476997024491,2
171,990,43,0.00184634164950027,0.00866712443732357,2
172,990,43,0.00216678110933089,0.00846875715266651,2
173,990,43,0.00209048599984741,0.0108186465247578,2
174,990,43,0.00205996795605402,0.0113527122911421,2
168,991,43,0.00251773861295491,0.00854505226215,2
169,991,43,0.00227359426260777,0.0085145342183566,2
170,991,43,0.00231937132829786,0.0116884107728695,2
171,991,43,0.00198367284657053,0.00819409475852598,2
172,991,43,0.00216678110933089,0.00898756389715419,2
173,991,43,0.00222781719691768,0.00860608834973678,2
168,992,43,0.0021210040436408,0.00819409475852598,2
170,992,43,0.00242618448157473,0.00885023270008392,2
164,993,43,0.00210574502174411,0.00999465934233616,2
165,993,43,0.00273136491950866,0.00848401617456321,2
166,993,43,0.00192263675898375,0.00837720302128634,2
167,993,43,0.0021210040436408,0.00845349813076982,2
168,993,43,0.00221255817502098,0.00828564888990616,2
164,994,43,0.00286869611657893,0.01196307316701,2
165,994,43,0.00170901045243,0.0235294117647059,2
166,994,43,0.00186160067139696,0.0157625696192874,2
167,994,43,0.0168001831082628,0.00830090791180285,2
168,994,43,0.00260929274433509,0.00822461280231937,2
169,994,43,0.00202944991226062,0.0127565423056382,2
167,995,43,0.00164797436484321,0.00819409475852598,2
168,995,43,0.00183108262760357,0.00817883573662928,2
169,995,43,0.00230411230640116,0.00863660639353018,2
168,996,43,0.00158693827725643,0.0204928664072633,2
169,996,43,0.00184634164950027,0.00804150453955901,2
170,996,43,0.00245670252536812,0.00839246204318303,2
174,989,44,0.00209048599984741,0.00796520943007553,2
172,990,44,0.00195315480277714,0.00820935378042268,2
173,990,44,0.00202944991226062,0.00823987182421607,2
174,990,44,0.00239566643778134,0.00843823910887312,2
169,991,44,0.00205996795605402,0.021560997940032,2
170,991,44,0.00192263675898375,0.0146944380865187,2
171,991,44,0.00221255817502098,0.00816357671473259,2
164,992,44,0.00238040741588464,0.00952162966353857,2
166,992,44,0.00207522697795071,0.00988784618905928,2
167,992,44,0.00231937132829786,0.00901808194094758,2
168,992,44,0.00195315480277714,0.016433966582742,2
169,992,44,0.00289921416037232,0.0161287861448081,2
170,992,44,0.00207522697795071,0.0080872816052491,2
164,993,44,0.00192263675898375,0.00848401617456321,2
166,993,44,0.00242618448157473,0.0150148775463493,2
167,993,44,0.00181582360570687,0.00828564888990616,2
168,993,44,0.00193789578088045,0.00868238345922026,2
166,994,44,0.00245670252536812,0.0118867780575265,2
167,994,44,0.00253299763485161,0.00831616693369955,2
168,994,44,0.00175478751812009,0.00791943236438544,2
169,994,44,0.00253299763485161,0.00839246204318303,2
165,995,44,0.00454718852521553,0.00863660639353018,2
166,995,44,0.00225833524071107,0.0124971389333944,2
167,995,44,0.00244144350347143,0.00975051499198901,2
168,995,44,0.00210574502174411,0.00840772106507973,2
167,996,44,0.00231937132829786,0.0106507972838941,2
168,996,44,0.00201419089036393,0.017593652246891,2
169,996,44,0.00166323338673991,0.00856031128404669,2
174,989,45,0.00231937132829786,0.00892652780956741,2
172,990,45,0.00132753490501259,0.0085297932402533,2
173,990,45,0.00155642023346304,0.0081025406271458,2
168,991,45,0.00274662394140536,0.00854505226215,2
169,991,45,0.00251773861295491,0.00881971465629053,2
170,991,45,0.00115968566414893,0.0188296330205234,2
164,992,45,0.0017242694743267,0.0103761348897536,2
166,992,45,0.00219729915312428,0.00860608834973678,2
168,992,45,0.00221255817502098,0.00822461280231937,2
169,992,45,0.00218204013122759,0.0118410009918364,2
164,993,45,0.00199893186846723,0.0105592431525139,2
165,993,45,0.0021515220874342,0.00820935378042268,2
166,994,45,0.00221255817502098,0.00975051499198901,2
167,994,45,0.00241092545967803,0.00866712443732357,2
168,994,45,0.00152590218966964,0.00825513084611276,2
166,995,45,0.00201419089036393,0.00831616693369955,2
167,995,45,0.00418097199969482,0.0177309834439612,2
168,995,45,0.0150606546120394,0.0119325551232166,2
167,996,45,0.00268558785381857,0.00854505226215,2
168,996,45,0.00138857099259937,0.00781261921110857,2
168,991,46,0.00164797436484321,0.00816357671473259,2
169,991,46,0.00141908903639277,0.00837720302128634,2
170,991,46,0.00239566643778134,0.00820935378042268,2
164,992,46,0.00274662394140536,0.00874341954680705,2
165,992,46,0.00209048599984741,0.00819409475852598,2
166,992,46,0.00201419089036393,0.00997940032043946,2
167,992,46,0.00186160067139696,0.0148317692835889,2
168,992,46,0.00221255817502098,0.00849927519645991,2
166,994,46,0.00199893186846723,0.00823987182421607,2
167,994,46,0.00222781719691768,0.0080872816052491,2
169,990,47,0.00134279392690929,0.00831616693369955,2
172,990,47,0.0122224765392538,0.0116426337071794,2
173,990,47,0.00157167925535973,0.00868238345922026,2
174,990,47,0.00262455176623178,0.0081025406271458,2
168,991,47,0.00199893186846723,0.00827038986800946,2
169,991,47,0.00234988937209125,0.00828564888990616,2
170,991,47,0.00178530556191348,0.00877393759060044,2
164,992,47,0.0749065384908827,0.00831616693369955,2
165,992,47,0.00224307621881437,0.0089570458533608,2
166,992,47,0.00228885328450446,0.00793469138628214,2
167,992,47,0.0021362630655375,0.00836194399938964,2
168,992,47,0.00184634164950027,0.00827038986800946,2
174,988,48,0.00221255817502098,0.0152895399404898,2
173,989,48,0.00253299763485161,0.00764476997024491,2
174,989,48,0.0130006866559854,0.00819409475852598,2
175,989,48,0.00198367284657053,0.00856031128404669,2
170,990,48,0.00224307621881437,0.00779736018921187,2
171,990,48,0.00183108262760357,0.01367208361944,2
172,990,48,0.00228885328450446,0.00845349813076982,2
173,990,48,0.00280766002899214,0.00820935378042268,2
174,990,48,0.0021210040436408,0.00901808194094758,2
168,991,48,0.00184634164950027,0.00802624551766232,2
169,991,48,0.00190737773708705,0.0114900434882124,2
170,991,48,0.00195315480277714,0.00874341954680705,2
171,991,48,0.00245670252536812,0.00775158312352178,2
172,991,48,0.00184634164950027,0.00781261921110857,2
166,992,48,0.00155642023346304,0.00796520943007553,2
168,992,48,0.00216678110933089,0.0146028839551385,2
169,992,48,0.00183108262760357,0.0085145342183566,2
164,993,48,0.00207522697795071,0.00820935378042268,2
166,993,48,0.00825513084611276,0.00820935378042268,2
167,993,48,0.0017242694743267,0.00805676356145571,2
168,993,48,0.00247196154726482,0.00833142595559625,2
164,994,48,0.00175478751812009,0.00814831769283589,2
165,994,48,0.00192263675898375,0.00856031128404669,2
173,988,49,0.0021210040436408,0.00846875715266651,2
174,988,49,0.00253299763485161,0.0100404364080262,2
175,988,49,0.00204470893415732,0.00907911802853437,2
173,989,49,0.00178530556191348,0.00866712443732357,2
174,989,49,0.00189211871519036,0.00801098649576562,2
175,989,49,0.00247196154726482,0.00814831769283589,2
171,990,49,0.00244144350347143,0.00819409475852598,2
172,990,49,0.0157167925535973,0.0174715800717174,2
173,990,49,0.00538643472953384,0.00865186541542687,2
169,991,49,0.00221255817502098,0.00790417334248875,2
170,991,49,0.00161745632104982,0.00823987182421607,2
171,991,49,0.00195315480277714,0.00865186541542687,2
172,991,49,0.00221255817502098,0.00805676356145571,2
167,992,49,0.00186160067139696,0.0105287251087205,2
168,992,49,0.00193789578088045,0.00854505226215,2
169,992,49,0.00270084687571527,0.00819409475852598,2
165,993,49,0.00224307621881437,0.00868238345922026,2
166,993,49,0.00230411230640116,0.0239871824216068,2
167,993,49,0.00183108262760357,0.011108567940795,2
185,989,40,0.00186160067139696,0.00849927519645991,2
186,989,40,0.00274662394140536,0.00830090791180285,2
186,988,41,0.00196841382467384,0.00912489509422446,2
183,989,41,0.00183108262760357,0.00788891432059205,2
185,989,41,0.00158693827725643,0.0085297932402533,2
182,988,42,0.002563515678645,0.0146639200427253,2
183,988,42,0.00236514839398795,0.00842298008697642,2
184,988,42,0.00218204013122759,0.00813305867093919,2
185,988,42,0.00164797436484321,0.00885023270008392,2
186,988,42,0.0021210040436408,0.0109102006561379,2
187,988,42,0.00209048599984741,0.00820935378042268,2
180,989,42,0.00170901045243,0.00901808194094758,2
181,989,42,0.0118715190356298,0.00791943236438544,2
182,989,42,0.00183108262760357,0.00825513084611276,2
183,989,42,0.00224307621881437,0.00888075074387732,2
184,989,42,0.00216678110933089,0.00834668497749294,2
185,989,42,0.00201419089036393,0.00816357671473259,2
180,990,42,0.00259403372243839,0.00903334096284428,2
181,990,42,0.0021515220874342,0.00943007553215839,2
182,990,42,0.0021210040436408,0.00898756389715419,2
179,987,43,0.00192263675898375,0.00952162966353857,2
180,987,43,0.00262455176623178,0.0102998397802701,2
181,987,43,0.00265506981002518,0.00866712443732357,2
182,987,43,0.00119020370794232,0.0121004043640803,2
186,987,43,0.00109864957656214,0.00880445563439384,2
178,988,43,0.00190737773708705,0.00840772106507973,2
179,988,43,0.00228885328450446,0.0089723048752575,2
180,988,43,0.00166323338673991,0.0104982070649271,2
181,988,43,0.00250247959105821,0.00759899290455482,2
182,988,43,0.00930800335698482,0.00849927519645991,2
183,988,43,0.00207522697795071,0.00854505226215,2
184,988,43,0.00183108262760357,0.00825513084611276,2
185,988,43,0.00202944991226062,0.00790417334248875,2
177,989,43,0.00187685969329366,0.00842298008697642,2
178,989,43,0.0021515220874342,0.0081025406271458,2
179,989,43,0.0021362630655375,0.00805676356145571,2
180,989,43,0.00198367284657053,0.00843823910887312,2
181,989,43,0.00196841382467384,0.00883497367818723,2
182,989,43,0.00209048599984741,0.00999465934233616,2
183,989,43,0.00239566643778134,0.00996414129854276,2
184,989,43,0.00186160067139696,0.00845349813076982,2
177,990,43,0.00231937132829786,0.00798046845197223,2
178,990,43,0.00207522697795071,0.00892652780956741,2
179,990,43,0.00239566643778134,0.0085145342183566,2
180,990,43,0.00230411230640116,0.00793469138628214,2
181,990,43,0.00248722056916152,0.00828564888990616,2
182,990,43,0.00457770656900893,0.00886549172198062,2
183,990,43,0.0105134660868238,0.00878919661249714,2
178,991,43,0.00236514839398795,0.00817883573662928,2
179,991,43,0.00189211871519036,0.00816357671473259,2
180,991,43,0.00219729915312428,0.0123903257801175,2
181,991,43,0.00271610589761196,0.0101167315175097,2
180,992,43,0.017944609750515,0.00872816052491035,2
181,992,43,0.00221255817502098,0.00862134737163348,2
179,987,44,0.00167849240863661,0.00881971465629053,2
180,987,44,0.00222781719691768,0.00782787823300526,2
181,987,44,0.00273136491950866,0.00793469138628214,2
182,987,44,0.002563515678645,0.00813305867093919,2
183,987,44,0.00166323338673991,0.00875867856870375,2
184,987,44,0.00228885328450446,0.00833142595559625,2
185,987,44,0.00253299763485161,0.00791943236438544,2
178,988,44,0.00184634164950027,0.00883497367818723,2
179,988,44,0.00204470893415732,0.00825513084611276,2
180,988,44,0.00198367284657053,0.00970473792629892,2
181,988,44,0.00189211871519036,0.00872816052491035,2
182,988,44,0.00225833524071107,0.00817883573662928,2
183,988,44,0.00244144350347143,0.00782787823300526,2
177,989,44,0.00181582360570687,0.0080872816052491,2
178,989,44,0.0021515220874342,0.00830090791180285,2
179,989,44,0.00192263675898375,0.0085297932402533,2
180,989,44,0.00218204013122759,0.0146639200427253,2
181,989,44,0.00157167925535973,0.00827038986800946,2
182,989,44,0.00216678110933089,0.0116578927290761,2
177,990,44,0.00192263675898375,0.00831616693369955,2
178,990,44,0.00199893186846723,0.00823987182421607,2
179,990,44,0.0172274357213703,0.00842298008697642,2
180,990,44,0.0189669642175937,0.00836194399938964,2
181,990,44,0.0017242694743267,0.00793469138628214,2
177,991,44,0.00262455176623178,0.00830090791180285,2
178,991,44,0.00183108262760357,0.00875867856870375,2
179,991,44,0.00173952849622339,0.00845349813076982,2
180,991,44,0.0025482566567483,0.0235446707866026,2
181,991,44,0.00230411230640116,0.00773632410162509,2
177,992,44,0.00227359426260777,0.00817883573662928,2
179,992,44,0.00230411230640116,0.00906385900663768,2
180,992,44,0.00210574502174411,0.0101472495613031,2
179,987,45,0.00199893186846723,0.00822461280231937,2
180,987,45,0.00244144350347143,0.007690547035935,2
181,987,45,0.00173952849622339,0.0173495078965438,2
182,987,45,0.00193789578088045,0.00823987182421607,2
178,988,45,0.00238040741588464,0.0107728694590677,2
179,988,45,0.00170901045243,0.00860608834973678,2
180,988,45,0.00190737773708705,0.00863660639353018,2
181,988,45,0.011810482948043,0.00822461280231937,2
182,988,45,0.00239566643778134,0.00820935378042268,2
183,988,45,0.00190737773708705,0.0142671854734112,2
177,989,45,0.00187685969329366,0.00775158312352178,2
178,989,45,0.00192263675898375,0.00856031128404669,2
179,989,45,0.00234988937209125,0.0185549706263828,2
180,989,45,0.00209048599984741,0.00814831769283589,2
181,989,45,0.00199893186846723,0.0221408407721065,2
182,989,45,0.00224307621881437,0.00849927519645991,2
177,990,45,0.00225833524071107,0.00772106507972839,2
178,990,45,0.00242618448157473,0.00798046845197223,2
179,990,45,0.00233463035019455,0.00859082932784009,2
180,990,45,0.00222781719691768,0.00793469138628214,2
181,990,45,0.00698863202868696,0.0154573891813535,2
177,991,45,0.00181582360570687,0.0177462424658579,2
178,991,45,0.00181582360570687,0.0121766994735637,2
179,991,45,0.00198367284657053,0.00805676356145571,2
180,991,45,0.00227359426260777,0.00860608834973678,2
177,992,45,0.00228885328450446,0.0081025406271458,2
178,992,45,0.00234988937209125,0.00854505226215,2
179,992,45,0.00396734569314107,0.00857557030594339,2
179,987,46,0.00271610589761196,0.00830090791180285,2
180,987,46,0.002563515678645,0.00854505226215,2
181,987,46,0.00173952849622339,0.00898756389715419,2
182,987,46,0.00177004654001678,0.00860608834973678,2
179,988,46,0.00192263675898375,0.00817883573662928,2
180,988,46,0.00207522697795071,0.00816357671473259,2
181,988,46,0.00204470893415732,0.00814831769283589,2
182,988,46,0.00857557030594339,0.00819409475852598,2
183,988,46,0.00192263675898375,0.00804150453955901,2
177,989,46,0.00183108262760357,0.00798046845197223,2
178,989,46,0.00201419089036393,0.0109864957656214,2
179,989,46,0.00228885328450446,0.00804150453955901,2
180,989,46,0.00225833524071107,0.00862134737163348,2
181,989,46,0.00170901045243,0.00822461280231937,2
182,989,46,0.00192263675898375,0.00796520943007553,2
177,990,46,0.00239566643778134,0.0160067139696345,2
178,990,46,0.00209048599984741,0.0108033875028611,2
179,990,46,0.00122072175173571,0.00833142595559625,2
180,990,46,0.021210040436408,0.0103150988021668,2
181,990,46,0.00418097199969482,0.00840772106507973,2
177,991,46,0.00143434805828946,0.0081025406271458,2
178,991,46,0.00183108262760357,0.0101167315175097,2
179,991,46,0.00253299763485161,0.0104829480430304,2
180,991,46,0.00192263675898375,0.00828564888990616,2
178,992,46,0.00190737773708705,0.00776684214541848,2
179,992,46,0.00178530556191348,0.00836194399938964,2
180,987,47,0.00180056458381018,0.014175631342031,2
181,987,47,0.00239566643778134,0.0123445487144274,2
182,987,47,0.00204470893415732,0.00788891432059205,2
177,988,47,0.00207522697795071,0.00988784618905928,2
180,988,47,0.00198367284657053,0.00820935378042268,2
181,988,47,0.00157167925535973,0.00849927519645991,2
182,988,47,0.00236514839398795,0.0081177996490425,2
183,988,47,0.0021210040436408,0.00831616693369955,2
176,989,47,0.00221255817502098,0.00831616693369955,2
177,989,47,0.00234988937209125,0.0080872816052491,2
178,989,47,0.00205996795605402,0.0085145342183566,2
179,989,47,0.00230411230640116,0.00825513084611276,2
180,989,47,0.0017242694743267,0.00807202258335241,2
181,989,47,0.00349431601434348,0.0142061493858244,2
182,989,47,0.00399786373693446,0.010605020218204,2
176,990,47,0.00195315480277714,0.00862134737163348,2
177,990,47,0.00154116121156634,0.00880445563439384,2
178,990,47,0.00224307621881437,0.00976577401388571,2
179,990,47,0.00244144350347143,0.00842298008697642,2
180,990,47,0.00221255817502098,0.00955214770733196,2
181,990,47,0.00167849240863661,0.00929274433508812,2
176,991,47,0.00274662394140536,0.00849927519645991,2
177,991,47,0.0051117723353933,0.00801098649576562,2
178,991,47,0.00151064316777295,0.0147554741741054,2
179,991,47,0.00207522697795071,0.00878919661249714,2
180,991,47,0.00289921416037232,0.00814831769283589,2
178,992,47,0.00267032883192187,0.00845349813076982,2
179,992,47,0.00224307621881437,0.00880445563439384,2
181,987,48,0.00178530556191348,0.00820935378042268,2
182,987,48,0.00201419089036393,0.00796520943007553,2
178,988,48,0.00485236896314946,0.00871290150301366,2
179,988,48,0.00230411230640116,0.00762951094834821,2
180,988,48,0.00239566643778134,0.00801098649576562,2
181,988,48,0.00170901045243,0.0132600900282292,2
182,988,48,0.00238040741588464,0.0109254596780346,2
183,988,48,0.00207522697795071,0.00798046845197223,2
176,989,48,0.0121766994735637,0.00813305867093919,2
177,989,48,0.00444037537193866,0.00779736018921187,2
178,989,48,0.00204470893415732,0.00984206912336919,2
179,989,48,0.00180056458381018,0.00909437705043107,2
180,989,48,0.00209048599984741,0.0081025406271458,2
181,989,48,0.0025787747005417,0.00823987182421607,2
182,989,48,0.00227359426260777,0.00802624551766232,2
183,989,48,0.00199893186846723,0.00868238345922026,2
176,990,48,0.00225833524071107,0.0132448310063325,2
177,990,48,0.00187685969329366,0.017593652246891,2
178,990,48,0.0021362630655375,0.00834668497749294,2
179,990,48,0.00247196154726482,0.00848401617456321,2
180,990,48,0.00207522697795071,0.00849927519645991,2
181,990,48,0.00228885328450446,0.00817883573662928,2
176,991,48,0.00234988937209125,0.00801098649576562,2
177,991,48,0.00189211871519036,0.0135042343785763,2
178,991,48,0.00209048599984741,0.00872816052491035,2
179,991,48,0.0199740596627756,0.0080872816052491,2
180,991,48,0.0241855497062638,0.0080872816052491,2
176,992,48,0.00178530556191348,0.00865186541542687,2
177,992,48,0.0016937514305333,0.00788891432059205,2
178,992,48,0.00205996795605402,0.00817883573662928,2
179,992,48,0.0021210040436408,0.00854505226215,2
177,993,48,0.00181582360570687,0.00837720302128634,2
178,993,48,0.00189211871519036,0.0124361028458076,2
181,987,49,0.00202944991226062,0.00843823910887312,2
182,987,49,0.00221255817502098,0.00834668497749294,2
183,987,49,0.0209048599984741,0.00820935378042268,2
176,988,49,0.00163271534294652,0.00752269779507134,2
178,988,49,0.00263981078812848,0.00881971465629053,2
179,988,49,0.00259403372243839,0.00872816052491035,2
180,988,49,0.00195315480277714,0.00791943236438544,2
181,988,49,0.00202944991226062,0.007690547035935,2
182,988,49,0.0173495078965438,0.00872816052491035,2
176,989,49,0.00202944991226062,0.00866712443732357,2
177,989,49,0.00166323338673991,0.00830090791180285,2
178,989,49,0.00175478751812009,0.00773632410162509,2
179,989,49,0.00187685969329366,0.00878919661249714,2
180,989,49,0.00311284046692607,0.00846875715266651,2
181,989,49,0.0341191729610132,0.0104829480430304,2
176,990,49,0.00659189745937285,0.0147707331960021,2
177,990,49,0.00849927519645991,0.00933852140077821,2
178,990,49,0.00189211871519036,0.00837720302128634,2
179,990,49,0.0249942778667887,0.0081177996490425,2
180,990,49,0.00245670252536812,0.0081025406271458,2
177,991,49,0.00204470893415732,0.00782787823300526,2
179,991,49,0.00267032883192187,0.00845349813076982,2
181,986,50,0.00196841382467384,0.00857557030594339,2
182,986,50,0.00221255817502098,0.00834668497749294,2
179,987,50,0.00224307621881437,0.0110627908751049,2
180,987,50,0.00193789578088045,0.00903334096284428,2
181,987,50,0.00181582360570687,0.0085145342183566,2
182,987,50,0.00239566643778134,0.00849927519645991,2
176,988,50,0.002563515678645,0.00868238345922026,2
177,988,50,0.00230411230640116,0.00778210116731518,2
178,988,50,0.00221255817502098,0.00856031128404669,2
179,988,50,0.00248722056916152,0.00843823910887312,2
180,988,50,0.00209048599984741,0.00918593118181125,2
177,989,50,0.00231937132829786,0.00860608834973678,2
178,989,50,0.00196841382467384,0.00817883573662928,2
179,989,50,0.00196841382467384,0.00819409475852598,2
176,990,50,0.00216678110933089,0.00825513084611276,2
177,990,50,0.00190737773708705,0.00807202258335241,2
181,986,51,0.00234988937209125,0.00823987182421607,2
182,986,51,0.00190737773708705,0.00834668497749294,2
178,987,51,0.00279240100709545,0.00863660639353018,2
179,987,51,0.00279240100709545,0.00849927519645991,2
181,987,51,0.0021210040436408,0.00878919661249714,2
176,988,51,0.00210574502174411,0.0085145342183566,2
177,988,51,0.00170901045243,0.00785839627679866,2
178,988,51,0.0021515220874342,0.00869764248111696,2
179,988,51,0.00216678110933089,0.0085145342183566,2
180,988,51,0.00187685969329366,0.00836194399938964,2
178,989,51,0.00253299763485161,0.00859082932784009,2
179,989,51,0.00233463035019455,0.00988784618905928,2
176,990,51,0.00209048599984741,0.00814831769283589,2
177,990,51,0.00242618448157473,0.00793469138628214,2
182,986,52,0.00205996795605402,0.00848401617456321,2
178,987,52,0.00230411230640116,0.00848401617456321,2
179,987,52,0.00263981078812848,0.00828564888990616,2
180,987,52,0.00224307621881437,0.00869764248111696,2
181,987,52,0.00173952849622339,0.00875867856870375,2
176,988,52,0.00222781719691768,0.00819409475852598,2
177,988,52,0.00234988937209125,0.00831616693369955,2
178,988,52,0.00202944991226062,0.00901808194094758,2
179,988,52,0.00164797436484321,0.0116731517509728,2
180,988,52,0.00184634164950027,0.00863660639353018,2
178,989,52,0.00241092545967803,0.00944533455405508,2
179,989,52,0.00225833524071107,0.011810482948043,2
177,990,52,0.00189211871519036,0.00822461280231937,2
181,986,53,0.00216678110933089,0.00827038986800946,2
182,986,53,0.00161745632104982,0.00831616693369955,2
178,987,53,0.00216678110933089,0.00903334096284428,2
180,987,53,0.0105287251087205,0.00790417334248875,2
181,987,53,0.00738536659800107,0.0131074998092622,2
177,988,53,0.00219729915312428,0.00965896086060884,2
180,988,53,0.00210574502174411,0.0080872816052491,2
186,986,49,0.00209048599984741,0.00849927519645991,2
185,987,49,0.0021515220874342,0.00814831769283589,2
183,988,49,0.00251773861295491,0.00881971465629053,2
184,988,49,0.00183108262760357,0.00819409475852598,2
182,989,49,0.00195315480277714,0.0076752880140383,2
181,990,49,0.00245670252536812,0.00859082932784009,2
176,991,49,0.00210574502174411,0.0106202792401007,2
178,991,49,0.00234988937209125,0.00865186541542687,2
180,991,49,0.00230411230640116,0.00860608834973678,2
176,992,49,0.00187685969329366,0.00849927519645991,2
177,992,49,0.00202944991226062,0.0295262073701076,2
178,992,49,0.00234988937209125,0.00891126878767071,2
179,992,49,0.00198367284657053,0.00994888227664607,2
177,994,49,0.00288395513847562,0.00891126878767071,2
178,994,49,0.00186160067139696,0.012161440451667,2
177,995,49,0.00193789578088045,0.00798046845197223,2
178,995,49,0.00230411230640116,0.00817883573662928,2
185,986,50,0.0282902265964752,0.00865186541542687,2
186,986,50,0.0117952239261463,0.00834668497749294,2
183,987,50,0.0021515220874342,0.00837720302128634,2
184,987,50,0.0059662775616083,0.00817883573662928,2
185,987,50,0.00462348363469902,0.00805676356145571,2
181,988,50,0.00248722056916152,0.00801098649576562,2
182,988,50,0.00238040741588464,0.00837720302128634,2
183,988,50,0.00221255817502098,0.00839246204318303,2
184,988,50,0.00186160067139696,0.00880445563439384,2
180,989,50,0.00222781719691768,0.00856031128404669,2
181,989,50,0.00265506981002518,0.00866712443732357,2
182,989,50,0.00189211871519036,0.00793469138628214,2
178,990,50,0.00198367284657053,0.00856031128404669,2
179,990,50,0.00276188296330205,0.00836194399938964,2
180,990,50,0.00241092545967803,0.00822461280231937,2
181,990,50,0.0012817578393225,0.00831616693369955,2
182,990,50,0.00236514839398795,0.00971999694819562,2
176,991,50,0.00228885328450446,0.00891126878767071,2
177,991,50,0.00239566643778134,0.00817883573662928,2
178,991,50,0.005981536583505,0.00756847486076143,2
179,991,50,0.00196841382467384,0.0089570458533608,2
180,991,50,0.00190737773708705,0.00883497367818723,2
176,992,50,0.00160219729915312,0.0165560387579156,2
177,992,50,0.0021362630655375,0.00817883573662928,2
178,992,50,0.00245670252536812,0.00866712443732357,2
179,992,50,0.00224307621881437,0.0101167315175097,2
177,993,50,0.00218204013122759,0.00805676356145571,2
178,993,50,0.00160219729915312,0.00863660639353018,2
179,993,50,0.0021515220874342,0.00877393759060044,2
177,994,50,0.00234988937209125,0.00927748531319142,2
178,994,50,0.00236514839398795,0.0081177996490425,2
177,995,50,0.0484473945220111,0.00825513084611276,2
178,995,50,0.00210574502174411,0.00991836423285267,2
182,987,51,0.00186160067139696,0.00845349813076982,2
183,987,51,0.00253299763485161,0.00817883573662928,2
184,987,51,0.00209048599984741,0.00802624551766232,2
185,987,51,0.0016937514305333,0.00904859998474098,2
181,988,51,0.00184634164950027,0.00790417334248875,2
182,988,51,0.0021362630655375,0.00830090791180285,2
183,988,51,0.00204470893415732,0.00862134737163348,2
184,988,51,0.0021515220874342,0.0109864957656214,2
180,989,51,0.00204470893415732,0.00833142595559625,2
181,989,51,0.00202944991226062,0.00819409475852598,2
182,989,51,0.0021362630655375,0.00831616693369955,2
183,989,51,0.00170901045243,0.00837720302128634,2
178,990,51,0.0463721675440604,0.00856031128404669,2
179,990,51,0.00209048599984741,0.0102693217364767,2
180,990,51,0.00146486610208286,0.00827038986800946,2
181,990,51,0.00238040741588464,0.0100709544518196,2
182,990,51,0.00173952849622339,0.0119325551232166,2
176,991,51,0.00234988937209125,0.00859082932784009,2
177,991,51,0.00177004654001678,0.00863660639353018,2
178,991,51,0.00228885328450446,0.00761425192645151,2
179,991,51,0.00224307621881437,0.00816357671473259,2
180,991,51,0.00173952849622339,0.00862134737163348,2
181,991,51,0.00157167925535973,0.0150453955901427,2
176,992,51,0.00190737773708705,0.00813305867093919,2
177,992,51,0.00238040741588464,0.00804150453955901,2
178,992,51,0.00209048599984741,0.00825513084611276,2
179,992,51,0.00216678110933089,0.00801098649576562,2
180,992,51,0.00224307621881437,0.0137331197070268,2
177,993,51,0.00207522697795071,0.00883497367818723,2
178,993,51,0.0021362630655375,0.0089723048752575,2
179,993,51,0.00251773861295491,0.00869764248111696,2
178,994,51,0.00244144350347143,0.00927748531319142,2
179,994,51,0.00259403372243839,0.0133821622034028,2
178,995,51,0.00296025024795911,0.00836194399938964,2
177,996,51,0.00239566643778134,0.00889600976577401,2
178,996,51,0.00166323338673991,0.00900282291905089,2
177,997,51,0.0046845197222858,0.00834668497749294,2
182,987,52,0.00177004654001678,0.00975051499198901,2
183,987,52,0.00242618448157473,0.00846875715266651,2
184,987,52,0.00164797436484321,0.00888075074387732,2
185,987,52,0.00140383001449607,0.00857557030594339,2
181,988,52,0.00238040741588464,0.00878919661249714,2
182,988,52,0.00163271534294652,0.00828564888990616,2
183,988,52,0.00236514839398795,0.00849927519645991,2
184,988,52,0.00222781719691768,0.00866712443732357,2
180,989,52,0.00201419089036393,0.00830090791180285,2
181,989,52,0.00437933928435187,0.0183566033417258,2
182,989,52,0.0104982070649271,0.00952162966353857,2
183,989,52,0.00270084687571527,0.0257114518959335,2
178,990,52,0.00146486610208286,0.00836194399938964,2
179,990,52,0.00219729915312428,0.00862134737163348,2
180,990,52,0.00265506981002518,0.00820935378042268,2
181,990,52,0.00189211871519036,0.00814831769283589,2
182,990,52,0.00167849240863661,0.00904859998474098,2
176,991,52,0.00218204013122759,0.00854505226215,2
177,991,52,0.00277714198519875,0.00856031128404669,2
178,991,52,0.00234988937209125,0.0187075608453498,2
179,991,52,0.0021210040436408,0.00860608834973678,2
180,991,52,0.00224307621881437,0.00859082932784009,2
181,991,52,0.00274662394140536,0.0085145342183566,2
176,992,52,0.00218204013122759,0.00822461280231937,2
177,992,52,0.00157167925535973,0.0089723048752575,2
178,992,52,0.00189211871519036,0.0152742809185931,2
179,992,52,0.00175478751812009,0.0085145342183566,2
180,992,52,0.00161745632104982,0.00836194399938964,2
177,993,52,0.00205996795605402,0.00935378042267491,2
178,993,52,0.0021210040436408,0.0085297932402533,2
179,993,52,0.00187685969329366,0.00848401617456321,2
180,993,52,0.00187685969329366,0.0085145342183566,2
177,994,52,0.00233463035019455,0.00814831769283589,2
178,994,52,0.00167849240863661,0.00823987182421607,2
179,994,52,0.00132753490501259,0.00831616693369955,2
180,994,52,0.00230411230640116,0.0081177996490425,2
177,995,52,0.00186160067139696,0.00926222629129473,2
178,995,52,0.00241092545967803,0.00836194399938964,2
179,995,52,0.00244144350347143,0.00837720302128634,2
177,996,52,0.00221255817502098,0.00878919661249714,2
178,996,52,0.00196841382467384,0.00854505226215,2
177,997,52,0.00224307621881437,0.00837720302128634,2
178,997,52,0.00210574502174411,0.014724956130312,2
177,998,52,0.00216678110933089,0.0160982681010147,2
182,987,53,0.00222781719691768,0.0134431982909895,2
183,987,53,0.00205996795605402,0.00839246204318303,2
184,987,53,0.00198367284657053,0.00843823910887312,2
185,987,53,0.00234988937209125,0.0111696040283818,2
181,988,53,0.00202944991226062,0.00866712443732357,2
182,988,53,0.0025482566567483,0.00840772106507973,2
183,988,53,0.00201419089036393,0.00831616693369955,2
184,988,53,0.00230411230640116,0.00827038986800946,2
180,989,53,0.00231937132829786,0.0134279392690929,2
181,989,53,0.00209048599984741,0.0081177996490425,2
182,989,53,0.00181582360570687,0.00883497367818723,2
183,989,53,0.00227359426260777,0.00872816052491035,2
184,989,53,0.0025787747005417,0.00868238345922026,2
178,990,53,0.00230411230640116,0.00834668497749294,2
179,990,53,0.00277714198519875,0.00848401617456321,2
180,990,53,0.00239566643778134,0.00993362325474937,2
181,990,53,0.00219729915312428,0.00906385900663768,2
182,990,53,0.00231937132829786,0.00820935378042268,2
183,990,53,0.00791943236438544,0.0089570458533608,2
176,991,53,0.00262455176623178,0.0121766994735637,2
177,991,53,0.00202944991226062,0.0089417868314641,2
178,991,53,0.00178530556191348,0.00849927519645991,2
179,991,53,0.00204470893415732,0.00869764248111696,2
180,991,53,0.00216678110933089,0.0180819409475853,2
181,991,53,0.00189211871519036,0.00920119020370794,2
176,992,53,0.00199893186846723,0.00888075074387732,2
177,992,53,0.00267032883192187,0.00822461280231937,2
178,992,53,0.00248722056916152,0.0130922407873655,2
179,992,53,0.00151064316777295,0.00971999694819562,2
174,993,53,0.00250247959105821,0.00856031128404669,2
176,993,53,0.00201419089036393,0.0103608758678569,2
177,993,53,0.00189211871519036,0.0124208438239109,2
178,993,53,0.0021515220874342,0.00816357671473259,2
178,994,53,0.00192263675898375,0.00910963607232776,2
182,986,54,0.00239566643778134,0.00796520943007553,2
183,986,54,0.00231937132829786,0.00843823910887312,2
181,987,54,0.00163271534294652,0.0160982681010147,2
182,987,54,0.00186160067139696,0.00831616693369955,2
183,987,54,0.0042877851529717,0.0141451132982376,2
184,987,54,0.00277714198519875,0.00820935378042268,2
180,988,54,0.00175478751812009,0.00845349813076982,2
181,988,54,0.0129549095902953,0.00785839627679866,2
182,988,54,0.00216678110933089,0.00880445563439384,2
183,988,54,0.00181582360570687,0.00997940032043946,2
179,989,54,0.002563515678645,0.0080872816052491,2
180,989,54,0.0165255207141222,0.00857557030594339,2
181,989,54,0.00144960708018616,0.00906385900663768,2
182,989,54,0.00250247959105821,0.0132753490501259,2
178,990,54,0.00184634164950027,0.0085297932402533,2
179,990,54,0.00242618448157473,0.0085145342183566,2
180,990,54,0.00273136491950866,0.00802624551766232,2
181,990,54,0.0021362630655375,0.00827038986800946,2
177,991,54,0.0151064316777295,0.00849927519645991,2
178,991,54,0.0363775082017243,0.00857557030594339,2
179,991,54,0.00218204013122759,0.00976577401388571,2
175,992,54,0.00228885328450446,0.00802624551766232,2
176,992,54,0.00198367284657053,0.00819409475852598,2
177,992,54,0.00218204013122759,0.0102845807583734,2
178,992,54,0.00201419089036393,0.0098268101014725,2
174,993,54,0.00198367284657053,0.00868238345922026,2
175,993,54,0.0308995193408103,0.00830090791180285,2
177,993,54,0.00146486610208286,0.00872816052491035,2
182,986,55,0.00263981078812848,0.00857557030594339,2
183,986,55,0.00222781719691768,0.00843823910887312,2
184,986,55,0.0016937514305333,0.0119020370794232,2
181,987,55,0.00170901045243,0.00857557030594339,2
182,987,55,0.00238040741588464,0.00857557030594339,2
183,987,55,0.00238040741588464,0.00865186541542687,2
180,988,55,0.00199893186846723,0.00877393759060044,2
181,988,55,0.00239566643778134,0.00886549172198062,2
182,988,55,0.00157167925535973,0.00822461280231937,2
179,989,55,0.00204470893415732,0.00842298008697642,2
180,989,55,0.00747692072938125,0.00886549172198062,2
181,989,55,0.0185854886701762,0.00869764248111696,2
178,990,55,0.00181582360570687,0.00863660639353018,2
179,990,55,0.00209048599984741,0.00849927519645991,2
176,991,55,0.00160219729915312,0.00822461280231937,2
177,991,55,0.00164797436484321,0.00830090791180285,2
178,991,55,0.00248722056916152,0.00892652780956741,2
176,992,55,0.0046997787441825,0.00909437705043107,2
177,992,55,0.00973525597009232,0.00830090791180285,2
175,993,55,0.00163271534294652,0.00787365529869535,2
176,993,55,0.00753795681696803,0.00827038986800946,2
181,986,56,0.00260929274433509,0.0153963530937667,2
182,986,56,0.00173952849622339,0.00840772106507973,2
183,986,56,0.0021210040436408,0.00822461280231937,2
181,987,56,0.00224307621881437,0.0178835736629282,2
182,987,56,0.0025482566567483,0.00830090791180285,2
180,988,56,0.00190737773708705,0.00848401617456321,2
181,988,56,0.0021210040436408,0.0103150988021668,2
180,989,56,0.00183108262760357,0.00872816052491035,2
178,990,56,0.00228885328450446,0.00830090791180285,2
179,990,56,0.00187685969329366,0.00846875715266651,2
177,991,56,0.00173952849622339,0.00794995040817884,2
178,991,56,0.00238040741588464,0.00807202258335241,2
177,992,56,0.0021515220874342,0.0218814373998627,2
177,993,56,0.00259403372243839,0.00827038986800946,2
181,986,57,0.00224307621881437,0.0098268101014725,2
182,986,57,0.00236514839398795,0.00794995040817884,2
183,986,57,0.00158693827725643,0.00819409475852598,2
180,987,57,0.00189211871519036,0.00781261921110857,2
181,987,57,0.00183108262760357,0.0085297932402533,2
182,987,57,0.00233463035019455,0.00846875715266651,2
179,988,57,0.00224307621881437,0.00784313725490196,2
180,988,57,0.0025787747005417,0.00843823910887312,2
181,988,57,0.00244144350347143,0.00790417334248875,2
179,989,57,0.00195315480277714,0.0189364461738003,2
181,986,58,0.00239566643778134,0.00865186541542687,2
182,986,58,0.00244144350347143,0.0182192721446555,2
180,987,58,0.0021515220874342,0.0085145342183566,2
179,988,58,0.00207522697795071,0.00833142595559625,2
180,988,58,0.0734111543450065,0.00868238345922026,2
179,989,58,0.00177004654001678,0.00814831769283589,2
178,990,58,0.00976577401388571,0.00868238345922026,2
181,986,59,0.02905317769131,0.010757610437171,2
180,986,60,0.00177004654001678,0.00793469138628214,2
181,986,60,0.00245670252536812,0.00833142595559625,2
180,987,60,0.00218204013122759,0.00892652780956741,2
181,986,61,0.00231937132829786,0.00807202258335241,2
175,991,49,0.00251773861295491,0.00854505226215,2
171,992,49,0.00157167925535973,0.00802624551766232,2
172,992,49,0.00199893186846723,0.00794995040817884,2
174,991,50,0.00160219729915312,0.00755321583886473,2
175,991,50,0.00205996795605402,0.00859082932784009,2
171,992,50,0.00253299763485161,0.00799572747386892,2
172,992,50,0.00187685969329366,0.00819409475852598,2
173,992,50,0.00250247959105821,0.00856031128404669,2
180,987,51,0.00222781719691768,0.00819409475852598,2
174,991,51,0.00175478751812009,0.00750743877317464,2
175,991,51,0.00228885328450446,0.0136415655756466,2
171,992,51,0.00210574502174411,0.00794995040817884,2
172,992,51,0.0025482566567483,0.00840772106507973,2
173,992,51,0.00216678110933089,0.00813305867093919,2
174,992,51,0.0021515220874342,0.00866712443732357,2
172,993,51,0.00183108262760357,0.00801098649576562,2
173,993,51,0.00199893186846723,0.007690547035935,2
181,986,52,0.00175478751812009,0.00869764248111696,2
175,990,52,0.00242618448157473,0.0141145952544442,2
176,990,52,0.00302128633554589,0.0102082856488899,2
173,991,52,0.00274662394140536,0.00798046845197223,2
174,991,52,0.00222781719691768,0.00819409475852598,2
175,991,52,0.00231937132829786,0.00842298008697642,2
171,992,52,0.00199893186846723,0.00828564888990616,2
172,992,52,0.00195315480277714,0.00823987182421607,2
173,992,52,0.00209048599984741,0.00843823910887312,2
174,992,52,0.00227359426260777,0.00837720302128634,2
172,993,52,0.00193789578088045,0.0122377355611505,2
173,993,52,0.00224307621881437,0.00831616693369955,2
174,993,52,0.00225833524071107,0.00840772106507973,2
178,988,53,0.00210574502174411,0.00842298008697642,2
179,988,53,0.00227359426260777,0.00820935378042268,2
177,989,53,0.00250247959105821,0.00843823910887312,2
178,989,53,0.00238040741588464,0.00825513084611276,2
179,989,53,0.00180056458381018,0.00874341954680705,2
175,990,53,0.00294499122606241,0.00941481651026169,2
176,990,53,0.00231937132829786,0.00943007553215839,2
177,990,53,0.00183108262760357,0.00871290150301366,2
173,991,53,0.00244144350347143,0.018097199969482,2
174,991,53,0.00167849240863661,0.00984206912336919,2
175,991,53,0.00228885328450446,0.00828564888990616,2
171,992,53,0.00730907148851759,0.00856031128404669,2
172,992,53,0.00329594872968643,0.00863660639353018,2
173,992,53,0.00263981078812848,0.00865186541542687,2
172,993,53,0.0395666437781338,0.00807202258335241,2
173,993,53,0.00180056458381018,0.00892652780956741,2
181,986,54,0.00195315480277714,0.00881971465629053,2
179,987,54,0.00227359426260777,0.00849927519645991,2
180,987,54,0.0025787747005417,0.00854505226215,2
178,988,54,0.0149691004806592,0.00839246204318303,2
179,988,54,0.0160219729915312,0.0157015335317006,2
177,989,54,0.00209048599984741,0.00885023270008392,2
178,989,54,0.00209048599984741,0.00874341954680705,2
175,990,54,0.00238040741588464,0.00854505226215,2
176,990,54,0.00259403372243839,0.00849927519645991,2
173,991,54,0.0021515220874342,0.00862134737163348,2
174,991,54,0.00244144350347143,0.00820935378042268,2
175,991,54,0.00190737773708705,0.00857557030594339,2
171,992,54,0.00205996795605402,0.00837720302128634,2
172,992,54,0.00209048599984741,0.0085297932402533,2
173,992,54,0.0025482566567483,0.00903334096284428,2
171,993,54,0.00405889982452125,0.00915541313801785,2
172,993,54,0.0372625314717327,0.0103608758678569,2
173,993,54,0.00167849240863661,0.00854505226215,2
181,986,55,0.00160219729915312,0.00839246204318303,2
179,987,55,0.00250247959105821,0.009399557488365,2
180,987,55,0.00234988937209125,0.00854505226215,2
177,988,55,0.00205996795605402,0.0103150988021668,2
178,988,55,0.00154116121156634,0.0155489433127337,2
176,989,55,0.00189211871519036,0.0137788967727169,2
177,989,55,0.00167849240863661,0.0214847028305486,2
174,990,55,0.00160219729915312,0.00846875715266651,2
175,990,55,0.00190737773708705,0.00816357671473259,2
176,990,55,0.00225833524071107,0.00845349813076982,2
173,991,55,0.00228885328450446,0.00845349813076982,2
174,991,55,0.00221255817502098,0.0089723048752575,2
171,992,55,0.00238040741588464,0.00869764248111696,2
172,992,55,0.00228885328450446,0.00898756389715419,2
173,992,55,0.0016937514305333,0.00834668497749294,2
171,993,55,0.00138857099259937,0.0236209658960861,2
172,993,55,0.00196841382467384,0.0101777676050965,2
173,993,55,0.00196841382467384,0.00845349813076982,2
179,986,56,0.00199893186846723,0.00823987182421607,2
180,986,56,0.00230411230640116,0.00776684214541848,2
178,987,56,0.00239566643778134,0.0171969176775769,2
179,987,56,0.00205996795605402,0.00967421988250553,2
177,988,56,0.00160219729915312,0.00865186541542687,2
178,988,56,0.00141908903639277,0.00949111161974517,2
176,989,56,0.00196841382467384,0.00816357671473259,2
177,989,56,0.00228885328450446,0.0176546883344778,2
174,990,56,0.00204470893415732,0.00880445563439384,2
175,990,56,0.00236514839398795,0.00927748531319142,2
176,990,56,0.00202944991226062,0.00888075074387732,2
173,991,56,0.00180056458381018,0.0181734950789654,2
174,991,56,0.00259403372243839,0.00845349813076982,2
172,992,56,0.00236514839398795,0.00868238345922026,2
173,992,56,0.00192263675898375,0.00796520943007553,2
171,993,56,0.00177004654001678,0.00869764248111696,2
172,993,56,0.00198367284657053,0.00814831769283589,2
173,993,56,0.00201419089036393,0.00817883573662928,2
179,986,57,0.00170901045243,0.0127260242618448,2
180,986,57,0.0021210040436408,0.00987258716716258,2
178,987,57,0.00209048599984741,0.0112916762035554,2
179,987,57,0.00245670252536812,0.00836194399938964,2
177,988,57,0.00224307621881437,0.00840772106507973,2
178,988,57,0.0232547493705653,0.00805676356145571,2
176,989,57,0.00207522697795071,0.00827038986800946,2
177,989,57,0.00192263675898375,0.00830090791180285,2
174,990,57,0.00161745632104982,0.0135957885099565,2
175,990,57,0.00228885328450446,0.00863660639353018,2
176,990,57,0.00225833524071107,0.00840772106507973,2
173,991,57,0.00253299763485161,0.00915541313801785,2
174,991,57,0.0552834363317311,0.00784313725490196,2
171,992,57,0.00222781719691768,0.00842298008697642,2
173,992,57,0.0017242694743267,0.0076600289921416,2
171,993,57,0.00218204013122759,0.00871290150301366,2
172,993,57,0.00195315480277714,0.0089570458533608,2
179,986,58,0.00228885328450446,0.00837720302128634,2
178,987,58,0.00260929274433509,0.00866712443732357,2
177,988,58,0.00184634164950027,0.0136415655756466,2
176,989,58,0.00180056458381018,0.0126497291523613,2
177,989,58,0.00219729915312428,0.0080872816052491,2
175,990,58,0.00198367284657053,0.00859082932784009,2
176,990,58,0.00219729915312428,0.00816357671473259,2
174,991,58,0.00247196154726482,0.00776684214541848,2
171,992,58,0.0115968566414893,0.0242923628595407,2
172,992,58,0.00251773861295491,0.0102845807583734,2
171,993,58,0.00216678110933089,0.0138551918822004,2
172,993,58,0.0021515220874342,0.00860608834973678,2
179,986,59,0.00242618448157473,0.00868238345922026,2
178,987,59,0.00228885328450446,0.0081025406271458,2
177,988,59,0.00218204013122759,0.0080872816052491,2
176,989,59,0.00228885328450446,0.00842298008697642,2
175,990,59,0.00234988937209125,0.00848401617456321,2
173,991,59,0.00198367284657053,0.0085297932402533,2
174,991,59,0.00209048599984741,0.00830090791180285,2
171,992,59,0.00190737773708705,0.00856031128404669,2
172,992,59,0.00241092545967803,0.00827038986800946,2
171,993,59,0.00259403372243839,0.00866712443732357,2
172,993,59,0.00242618448157473,0.0085145342183566,2
179,986,60,0.00234988937209125,0.00814831769283589,2
178,987,60,0.00202944991226062,0.00744640268558785,2
177,988,60,0.00187685969329366,0.00883497367818723,2
176,989,60,0.00210574502174411,0.00869764248111696,2
173,991,60,0.00236514839398795,0.0142519264515145,2
174,991,60,0.00241092545967803,0.00840772106507973,2
172,992,60,0.00173952849622339,0.00804150453955901,2
173,992,60,0.00260929274433509,0.0134889753566796,2
172,993,60,0.00219729915312428,0.00848401617456321,2
179,986,61,0.00175478751812009,0.00859082932784009,2
178,987,61,0.00277714198519875,0.00773632410162509,2
177,988,61,0.00202944991226062,0.00830090791180285,2
176,989,61,0.00173952849622339,0.00820935378042268,2
175,990,61,0.002563515678645,0.00817883573662928,2
173,991,61,0.00202944991226062,0.00863660639353018,2
174,991,61,0.00251773861295491,0.00866712443732357,2
173,992,61,0.00244144350347143,0.00804150453955901,2
179,986,62,0.00241092545967803,0.0080872816052491,2
178,987,62,0.00218204013122759,0.00817883573662928,2
177,988,62,0.00187685969329366,0.00930800335698482,2
175,990,62,0.00163271534294652,0.00926222629129473,2
178,987,63,0.00202944991226062,0.00862134737163348,2
177,988,63,0.00271610589761196,0.00848401617456321,2
178,988,63,0.00210574502174411,0.00839246204318303,2
177,989,63,0.0151827267872129,0.00814831769283589,2
175,990,63,0.00228885328450446,0.00830090791180285,2
176,990,63,0.00247196154726482,0.00854505226215,2
178,988,64,0.00202944991226062,0.00816357671473259,2
177,989,64,0.00248722056916152,0.00859082932784009,2
176,990,64,0.00149538414587625,0.00820935378042268,2
178,988,65,0.00207522697795071,0.00820935378042268,2
177,989,65,0.00183108262760357,0.00910963607232776,2
173,994,51,0.00236514839398795,0.00915541313801785,2
172,995,51,0.00259403372243839,0.0111696040283818,2
173,995,51,0.00238040741588464,0.0089417868314641,2
174,1001,51,0.00161745632104982,0.00814831769283589,2
172,994,52,0.00204470893415732,0.0124208438239109,2
173,994,52,0.00209048599984741,0.00788891432059205,2
174,994,52,0.00202944991226062,0.00802624551766232,2
172,995,52,0.00195315480277714,0.00840772106507973,2
173,995,52,0.010452429999237,0.00862134737163348,2
172,996,52,0.00207522697795071,0.00843823910887312,2
172,999,52,0.00268558785381857,0.00790417334248875,2
173,999,52,0.0107728694590677,0.00787365529869535,2
172,1001,52,0.00227359426260777,0.00828564888990616,2
173,1001,52,0.00195315480277714,0.00891126878767071,2
174,1001,52,0.00201419089036393,0.0112916762035554,2
173,1002,52,0.00259403372243839,0.00813305867093919,2
174,992,53,0.00250247959105821,0.00823987182421607,2
180,992,53,0.00221255817502098,0.0136873426413367,2
179,993,53,0.00219729915312428,0.00802624551766232,2
180,993,53,0.0182497901884489,0.016235599298085,2
173,994,53,0.0025787747005417,0.00805676356145571,2
174,994,53,0.00260929274433509,0.00909437705043107,2
177,994,53,0.00260929274433509,0.0081025406271458,2
179,994,53,0.00193789578088045,0.00923170824750134,2
172,995,53,0.00166323338673991,0.00918593118181125,2
173,995,53,0.00184634164950027,0.0081177996490425,2
174,995,53,0.00231937132829786,0.00830090791180285,2
176,995,53,0.00196841382467384,0.0102235446707866,2
177,995,53,0.00675974670023652,0.0104676890211337,2
178,995,53,0.0214694438086519,0.0208438239108873,2
179,995,53,0.00224307621881437,0.00865186541542687,2
172,996,53,0.00503547722590982,0.00958266575112535,2
173,996,53,0.00267032883192187,0.00888075074387732,2
177,996,53,0.00184634164950027,0.00943007553215839,2
178,996,53,0.00144960708018616,0.0145571068894484,2
172,997,53,0.00202944991226062,0.00837720302128634,2
177,997,53,0.00210574502174411,0.00924696726939803,2
178,997,53,0.00209048599984741,0.00863660639353018,2
172,998,53,0.00201419089036393,0.00845349813076982,2
173,999,53,0.00251773861295491,0.00874341954680705,2
172,1001,53,0.00178530556191348,0.0081025406271458,2
173,1001,53,0.00218204013122759,0.00849927519645991,2
174,1001,53,0.00222781719691768,0.00874341954680705,2
172,1002,53,0.00221255817502098,0.00816357671473259,2
173,1002,53,0.0025787747005417,0.00822461280231937,2
174,1002,53,0.00195315480277714,0.00836194399938964,2
185,987,54,0.00180056458381018,0.0105745021744106,2
184,988,54,0.0225375753414206,0.012466620889601,2
183,989,54,0.00228885328450446,0.00846875715266651,2
177,990,54,0.00192263675898375,0.0113832303349355,2
182,990,54,0.0016937514305333,0.00845349813076982,2
176,991,54,0.00968947890440223,0.00900282291905089,2
180,991,54,0.00218204013122759,0.00926222629129473,2
174,992,54,0.00227359426260777,0.00892652780956741,2
179,992,54,0.00205996795605402,0.00878919661249714,2
178,993,54,0.00231937132829786,0.00878919661249714,2
179,993,54,0.00148012512397955,0.00866712443732357,2
173,994,54,0.00196841382467384,0.00849927519645991,2
174,994,54,0.00207522697795071,0.00865186541542687,2
175,994,54,0.00219729915312428,0.00909437705043107,2
176,994,54,0.00180056458381018,0.00846875715266651,2
178,994,54,0.00192263675898375,0.00794995040817884,2
179,994,54,0.00973525597009232,0.0125123979552911,2
172,995,54,0.00149538414587625,0.00845349813076982,2
173,995,54,0.0017242694743267,0.00900282291905089,2
174,995,54,0.00216678110933089,0.00839246204318303,2
175,995,54,0.00241092545967803,0.00814831769283589,2
176,995,54,0.00155642023346304,0.00856031128404669,2
177,995,54,0.00157167925535973,0.00880445563439384,2
178,995,54,0.00161745632104982,0.0248416876478218,2
179,995,54,0.00222781719691768,0.00923170824750134,2
171,996,54,0.00219729915312428,0.00828564888990616,2
172,996,54,0.0025787747005417,0.0111848630502785,2
173,996,54,0.00195315480277714,0.00875867856870375,2
174,996,54,0.00166323338673991,0.00868238345922026,2
176,996,54,0.00238040741588464,0.0081177996490425,2
177,996,54,0.0017242694743267,0.00869764248111696,2
178,996,54,0.00181582360570687,0.00891126878767071,2
172,997,54,0.00152590218966964,0.0103456168459602,2
173,997,54,0.00199893186846723,0.00918593118181125,2
174,997,54,0.00260929274433509,0.00903334096284428,2
177,997,54,0.00228885328450446,0.00880445563439384,2
178,997,54,0.0021362630655375,0.0081025406271458,2
172,998,54,0.00180056458381018,0.00859082932784009,2
173,998,54,0.00149538414587625,0.00828564888990616,2
177,998,54,0.00242618448157473,0.0108033875028611,2
172,999,54,0.0021362630655375,0.00875867856870375,2
172,1000,54,0.00152590218966964,0.00859082932784009,2
172,1001,54,0.0025482566567483,0.00889600976577401,2
173,1001,54,0.00187685969329366,0.0080872816052491,2
172,1002,54,0.00225833524071107,0.00817883573662928,2
173,1002,54,0.00222781719691768,0.00814831769283589,2
184,987,55,0.00814831769283589,0.00854505226215,2
179,988,55,0.00199893186846723,0.00793469138628214,2
183,988,55,0.00181582360570687,0.00802624551766232,2
178,989,55,0.00219729915312428,0.00839246204318303,2
182,989,55,0.00230411230640116,0.0085145342183566,2
177,990,55,0.00242618448157473,0.00869764248111696,2
180,990,55,0.0126497291523613,0.00819409475852598,2
181,990,55,0.00192263675898375,0.00888075074387732,2
175,991,55,0.0016937514305333,0.00837720302128634,2
179,991,55,0.00148012512397955,0.00840772106507973,2
180,991,55,0.00170901045243,0.00779736018921187,2
174,992,55,0.00198367284657053,0.00935378042267491,2
175,992,55,0.0021515220874342,0.00854505226215,2
178,992,55,0.00183108262760357,0.00772106507972839,2
179,992,55,0.00183108262760357,0.00871290150301366,2
174,993,55,0.00228885328450446,0.00857557030594339,2
179,993,55,0.0025482566567483,0.00839246204318303,2
172,994,55,0.00216678110933089,0.00802624551766232,2
173,994,55,0.00160219729915312,0.00836194399938964,2
174,994,55,0.00997940032043946,0.00949111161974517,2
175,994,55,0.00267032883192187,0.0103150988021668,2
176,994,55,0.00189211871519036,0.0085145342183566,2
177,994,55,0.00177004654001678,0.00825513084611276,2
178,994,55,0.0021362630655375,0.00840772106507973,2
179,994,55,0.00239566643778134,0.00849927519645991,2
171,995,55,0.00209048599984741,0.00871290150301366,2
172,995,55,0.0021362630655375,0.00866712443732357,2
173,995,55,0.00283817807278553,0.00860608834973678,2
174,995,55,0.00219729915312428,0.0081177996490425,2
175,995,55,0.00202944991226062,0.00848401617456321,2
176,995,55,0.0021362630655375,0.013168535896849,2
177,995,55,0.00250247959105821,0.00901808194094758,2
178,995,55,0.00227359426260777,0.00816357671473259,2
171,996,55,0.00216678110933089,0.0154726482032502,2
172,996,55,0.00180056458381018,0.00794995040817884,2
173,996,55,0.00173952849622339,0.0158083466849775,2
174,996,55,0.00207522697795071,0.00843823910887312,2
175,996,55,0.00183108262760357,0.00820935378042268,2
176,996,55,0.0021362630655375,0.0081025406271458,2
177,996,55,0.00207522697795071,0.00871290150301366,2
178,996,55,0.00209048599984741,0.00865186541542687,2
171,997,55,0.00224307621881437,0.00889600976577401,2
172,997,55,0.00251773861295491,0.00830090791180285,2
173,997,55,0.00173952849622339,0.00785839627679866,2
174,997,55,0.0017242694743267,0.00872816052491035,2
175,997,55,0.00245670252536812,0.00898756389715419,2
176,997,55,0.0265964751659419,0.00775158312352178,2
178,997,55,0.00186160067139696,0.0238345922026398,2
172,998,55,0.0016937514305333,0.00875867856870375,2
173,998,55,0.0213168535896849,0.0085297932402533,2
174,998,55,0.00241092545967803,0.00816357671473259,2
175,998,55,0.00170901045243,0.0202944991226062,2
176,998,55,0.00219729915312428,0.00921644922560464,2
172,999,55,0.032623788815137,0.0104219119554437,2
173,999,55,0.00181582360570687,0.0118562600137331,2
172,1000,55,0.00216678110933089,0.00871290150301366,2
173,1000,55,0.00230411230640116,0.00830090791180285,2
173,1001,55,0.00221255817502098,0.00863660639353018,2
172,1002,55,0.00202944991226062,0.00903334096284428,2
173,1002,55,0.00161745632104982,0.00796520943007553,2
184,986,56,0.00242618448157473,0.00785839627679866,2
180,987,56,0.00186160067139696,0.00830090791180285,2
183,987,56,0.00205996795605402,0.00915541313801785,2
184,987,56,0.00158693827725643,0.00883497367818723,2
179,988,56,0.00205996795605402,0.0171511406118868,2
182,988,56,0.0016937514305333,0.0179903868162051,2
183,988,56,0.00201419089036393,0.00862134737163348,2
178,989,56,0.00204470893415732,0.00848401617456321,2
181,989,56,0.00186160067139696,0.0081025406271458,2
182,989,56,0.00189211871519036,0.00862134737163348,2
177,990,56,0.00262455176623178,0.00865186541542687,2
180,990,56,0.0021362630655375,0.0139162279697871,2
181,990,56,0.00242618448157473,0.0085145342183566,2
175,991,56,0.00260929274433509,0.00819409475852598,2
176,991,56,0.00178530556191348,0.00860608834973678,2
179,991,56,0.00245670252536812,0.00759899290455482,2
180,991,56,0.00187685969329366,0.00842298008697642,2
174,992,56,0.00181582360570687,0.00822461280231937,2
175,992,56,0.00222781719691768,0.00840772106507973,2
176,992,56,0.00250247959105821,0.0119783321889067,2
178,992,56,0.00955214770733196,0.0105134660868238,2
179,992,56,0.00303654535744259,0.00860608834973678,2
174,993,56,0.00248722056916152,0.00837720302128634,2
175,993,56,0.0021362630655375,0.00889600976577401,2
176,993,56,0.00202944991226062,0.00830090791180285,2
178,993,56,0.00274662394140536,0.00827038986800946,2
179,993,56,0.00158693827725643,0.00881971465629053,2
171,994,56,0.00221255817502098,0.00854505226215,2
172,994,56,0.00222781719691768,0.00941481651026169,2
173,994,56,0.00204470893415732,0.0142366674296178,2
174,994,56,0.00202944991226062,0.00822461280231937,2
175,994,56,0.00160219729915312,0.013015945677882,2
176,994,56,0.00260929274433509,0.00988784618905928,2
177,994,56,0.00195315480277714,0.00865186541542687,2
178,994,56,0.00221255817502098,0.0110322728313115,2
179,994,56,0.00210574502174411,0.00885023270008392,2
172,995,56,0.00199893186846723,0.00924696726939803,2
173,995,56,0.00251773861295491,0.0167086289768826,2
174,995,56,0.00207522697795071,0.0081177996490425,2
175,995,56,0.00204470893415732,0.00831616693369955,2
176,995,56,0.00221255817502098,0.00868238345922026,2
177,995,56,0.00807202258335241,0.00842298008697642,2
178,995,56,0.0181734950789654,0.00856031128404669,2
172,996,56,0.00218204013122759,0.00836194399938964,2
173,996,56,0.0021210040436408,0.00834668497749294,2
174,996,56,0.00218204013122759,0.00827038986800946,2
175,996,56,0.00196841382467384,0.0154116121156634,2
176,996,56,0.00224307621881437,0.00801098649576562,2
177,996,56,0.00238040741588464,0.00885023270008392,2
178,996,56,0.00239566643778134,0.0106660563057908,2
172,997,56,0.00192263675898375,0.0148012512397955,2
173,997,56,0.002563515678645,0.0160372320134279,2
174,997,56,0.00245670252536812,0.00881971465629053,2
175,997,56,0.00207522697795071,0.00871290150301366,2
176,997,56,0.00155642023346304,0.00843823910887312,2
177,997,56,0.00247196154726482,0.00799572747386892,2
171,998,56,0.00263981078812848,0.00849927519645991,2
172,998,56,0.00190737773708705,0.00840772106507973,2
173,998,56,0.00157167925535973,0.00842298008697642,2
174,998,56,0.00218204013122759,0.00804150453955901,2
175,998,56,0.00216678110933089,0.00839246204318303,2
173,999,56,0.00199893186846723,0.0109407186999313,2
174,999,56,0.00166323338673991,0.00924696726939803,2
172,1000,56,0.0021210040436408,0.00807202258335241,2
173,1000,56,0.00253299763485161,0.00804150453955901,2
173,1002,56,0.00250247959105821,0.00874341954680705,2
173,1003,56,0.0021515220874342,0.0122377355611505,2
184,986,57,0.00210574502174411,0.00817883573662928,2
183,987,57,0.00196841382467384,0.00799572747386892,2
182,988,57,0.00193789578088045,0.00775158312352178,2
178,989,57,0.00238040741588464,0.00825513084611276,2
180,989,57,0.00238040741588464,0.00823987182421607,2
181,989,57,0.00260929274433509,0.0081025406271458,2
182,989,57,0.00514229037918669,0.00863660639353018,2
177,990,57,0.00209048599984741,0.00910963607232776,2
178,990,57,0.00210574502174411,0.00950637064164187,2
179,990,57,0.0143282215609979,0.0100862134737163,2
180,990,57,0.00265506981002518,0.0188906691081102,2
181,990,57,0.00187685969329366,0.00820935378042268,2
175,991,57,0.00161745632104982,0.00775158312352178,2
176,991,57,0.00415045395590143,0.00880445563439384,2
177,991,57,0.00271610589761196,0.0137788967727169,2
178,991,57,0.00259403372243839,0.00837720302128634,2
179,991,57,0.00193789578088045,0.00801098649576562,2
180,991,57,0.00251773861295491,0.00854505226215,2
174,992,57,0.00242618448157473,0.00823987182421607,2
175,992,57,0.00218204013122759,0.00863660639353018,2
176,992,57,0.00927748531319142,0.007690547035935,2
177,992,57,0.00602731364919509,0.00837720302128634,2
178,992,57,0.00245670252536812,0.00805676356145571,2
179,992,57,0.00178530556191348,0.00839246204318303,2
173,993,57,0.0025482566567483,0.00831616693369955,2
174,993,57,0.00175478751812009,0.00791943236438544,2
175,993,57,0.00218204013122759,0.00857557030594339,2
176,993,57,0.00218204013122759,0.00869764248111696,2
177,993,57,0.0025787747005417,0.00836194399938964,2
178,993,57,0.00160219729915312,0.00785839627679866,2
179,993,57,0.00218204013122759,0.00845349813076982,2
180,993,57,0.00250247959105821,0.00880445563439384,2
172,994,57,0.00253299763485161,0.00793469138628214,2
173,994,57,0.0021515220874342,0.00868238345922026,2
174,994,57,0.00193789578088045,0.00865186541542687,2
175,994,57,0.00210574502174411,0.00793469138628214,2
176,994,57,0.00187685969329366,0.00791943236438544,2
177,994,57,0.0021515220874342,0.00846875715266651,2
178,994,57,0.00183108262760357,0.0158388647287709,2
179,994,57,0.00201419089036393,0.00799572747386892,2
173,995,57,0.00251773861295491,0.00962844281681544,2
174,995,57,0.00251773861295491,0.0122682536049439,2
175,995,57,0.00199893186846723,0.00869764248111696,2
176,995,57,0.00148012512397955,0.0169680323491264,2
177,995,57,0.0025787747005417,0.00796520943007553,2
178,995,57,0.00248722056916152,0.00798046845197223,2
174,996,57,0.00201419089036393,0.00831616693369955,2
175,996,57,0.0016937514305333,0.00753795681696803,2
176,996,57,0.00221255817502098,0.00843823910887312,2
171,997,57,0.00180056458381018,0.0138399328603037,2
173,997,57,0.00222781719691768,0.00849927519645991,2
174,997,57,0.00202944991226062,0.00872816052491035,2
175,997,57,0.00210574502174411,0.00909437705043107,2
171,998,57,0.00193789578088045,0.00790417334248875,2
172,998,57,0.00199893186846723,0.00839246204318303,2
173,998,57,0.00198367284657053,0.0080872816052491,2
174,998,57,0.00228885328450446,0.00825513084611276,2
173,999,57,0.00224307621881437,0.0118867780575265,2
172,1000,57,0.00230411230640116,0.00807202258335241,2
173,1000,57,0.00233463035019455,0.00848401617456321,2
180,986,58,0.0759899290455482,0.00845349813076982,2
183,986,58,0.00239566643778134,0.00823987182421607,2
179,987,58,0.00242618448157473,0.00816357671473259,2
181,987,58,0.00190737773708705,0.00805676356145571,2
182,987,58,0.0025787747005417,0.0085297932402533,2
183,987,58,0.0029755092698558,0.00813305867093919,2
178,988,58,0.00175478751812009,0.00836194399938964,2
181,988,58,0.00236514839398795,0.0128786144808118,2
182,988,58,0.00177004654001678,0.00866712443732357,2
180,989,58,0.00204470893415732,0.0125734340428779,2
181,989,58,0.00202944991226062,0.017792019531548,2
177,990,58,0.00178530556191348,0.00868238345922026,2
179,990,58,0.00234988937209125,0.0153200579842832,2
180,990,58,0.00227359426260777,0.00758373388265812,2
181,990,58,0.00210574502174411,0.00825513084611276,2
175,991,58,0.00195315480277714,0.00843823910887312,2
176,991,58,0.00166323338673991,0.00866712443732357,2
177,991,58,0.00192263675898375,0.00837720302128634,2
178,991,58,0.00225833524071107,0.00816357671473259,2
179,991,58,0.00138857099259937,0.00898756389715419,2
180,991,58,0.00204470893415732,0.00932326237888151,2
173,992,58,0.00193789578088045,0.00862134737163348,2
174,992,58,0.00199893186846723,0.00856031128404669,2
175,992,58,0.00225833524071107,0.0100709544518196,2
176,992,58,0.00241092545967803,0.0122682536049439,2
177,992,58,0.00205996795605402,0.0203860532539864,2
178,992,58,0.00228885328450446,0.0170748455024033,2
179,992,58,0.00207522697795071,0.0081177996490425,2
173,993,58,0.00228885328450446,0.00816357671473259,2
174,993,58,0.00210574502174411,0.00827038986800946,2
175,993,58,0.0115510795757992,0.00862134737163348,2
176,993,58,0.00228885328450446,0.0160219729915312,2
177,993,58,0.00236514839398795,0.00886549172198062,2
178,993,58,0.00192263675898375,0.0163576714732586,2
179,993,58,0.00691233691920348,0.00863660639353018,2
173,994,58,0.00187685969329366,0.00865186541542687,2
174,994,58,0.0021210040436408,0.0101777676050965,2
175,994,58,0.0025482566567483,0.0153353170061799,2
176,994,58,0.00228885328450446,0.00801098649576562,2
177,994,58,0.00198367284657053,0.00903334096284428,2
178,994,58,0.00262455176623178,0.00924696726939803,2
179,994,58,0.00239566643778134,0.00817883573662928,2
174,995,58,0.00186160067139696,0.00859082932784009,2
175,995,58,0.00218204013122759,0.00871290150301366,2
176,995,58,0.00207522697795071,0.00831616693369955,2
177,995,58,0.002563515678645,0.0085145342183566,2
174,996,58,0.00236514839398795,0.00950637064164187,2
175,996,58,0.00230411230640116,0.0106202792401007,2
172,997,58,0.00276188296330205,0.00885023270008392,2
173,997,58,0.00141908903639277,0.0142977035172045,2
174,997,58,0.00149538414587625,0.0135042343785763,2
175,997,58,0.00234988937209125,0.016388189517052,2
171,998,58,0.00198367284657053,0.00863660639353018,2
172,998,58,0.00201419089036393,0.00804150453955901,2
173,998,58,0.00263981078812848,0.00901808194094758,2
174,998,58,0.0025482566567483,0.0128480964370184,2
171,999,58,0.00247196154726482,0.00859082932784009,2
172,999,58,0.00233463035019455,0.00860608834973678,2
173,999,58,0.00216678110933089,0.00881971465629053,2
171,1000,58,0.00231937132829786,0.0131380178530556,2
172,1000,58,0.00230411230640116,0.00891126878767071,2
173,1000,58,0.00198367284657053,0.00839246204318303,2
171,1001,58,0.00231937132829786,0.00837720302128634,2
172,1001,58,0.00192263675898375,0.00871290150301366,2
173,1002,58,0.00238040741588464,0.00788891432059205,2
180,986,59,0.00218204013122759,0.0105897611963073,2
182,986,59,0.00218204013122759,0.00868238345922026,2
179,987,59,0.00207522697795071,0.00823987182421607,2
180,987,59,0.00193789578088045,0.00849927519645991,2
181,987,59,0.00221255817502098,0.00856031128404669,2
182,987,59,0.00234988937209125,0.00773632410162509,2
178,988,59,0.00175478751812009,0.00804150453955901,2
179,988,59,0.0217746242465858,0.00788891432059205,2
180,988,59,0.00189211871519036,0.00839246204318303,2
181,988,59,0.00204470893415732,0.0173647669184405,2
182,988,59,0.00250247959105821,0.0111543450064851,2
177,989,59,0.0317998016327153,0.00833142595559625,2
178,989,59,0.00218204013122759,0.013519493400473,2
179,989,59,0.00158693827725643,0.00807202258335241,2
180,989,59,0.00216678110933089,0.0081025406271458,2
181,989,59,0.0021515220874342,0.0081177996490425,2
176,990,59,0.00180056458381018,0.00817883573662928,2
177,990,59,0.00270084687571527,0.00857557030594339,2
178,990,59,0.00265506981002518,0.00842298008697642,2
179,990,59,0.00222781719691768,0.00846875715266651,2
180,990,59,0.00236514839398795,0.0110627908751049,2
175,991,59,0.0021515220874342,0.00805676356145571,2
176,991,59,0.00270084687571527,0.0151369497215229,2
177,991,59,0.0021210040436408,0.00862134737163348,2
178,991,59,0.00198367284657053,0.00834668497749294,2
179,991,59,0.00250247959105821,0.00798046845197223,2
174,992,59,0.00222781719691768,0.00833142595559625,2
175,992,59,0.00218204013122759,0.00836194399938964,2
176,992,59,0.00927748531319142,0.00859082932784009,2
177,992,59,0.0101319905394064,0.0080872816052491,2
178,992,59,0.00216678110933089,0.00863660639353018,2
173,993,59,0.0153047989623865,0.00802624551766232,2
174,993,59,0.0025482566567483,0.014724956130312,2
175,993,59,0.00267032883192187,0.00846875715266651,2
176,993,59,0.0021362630655375,0.00869764248111696,2
177,993,59,0.00207522697795071,0.0124055848020142,2
178,993,59,0.00268558785381857,0.00816357671473259,2
179,993,59,0.00959792477302205,0.00831616693369955,2
174,994,59,0.00166323338673991,0.0124361028458076,2
175,994,59,0.0021210040436408,0.00814831769283589,2
176,994,59,0.00244144350347143,0.0211032272831312,2
177,994,59,0.00224307621881437,0.00849927519645991,2
174,995,59,0.00267032883192187,0.013824673838407,2
175,995,59,0.00231937132829786,0.00840772106507973,2
176,995,59,0.00202944991226062,0.00854505226215,2
173,996,59,0.00738536659800107,0.00825513084611276,2
174,996,59,0.00222781719691768,0.00788891432059205,2
175,996,59,0.0025787747005417,0.00868238345922026,2
173,997,59,0.00233463035019455,0.0141908903639277,2
174,997,59,0.00224307621881437,0.0080872816052491,2
171,998,59,0.0021515220874342,0.00849927519645991,2
172,998,59,0.00239566643778134,0.00836194399938964,2
173,998,59,0.00198367284657053,0.00848401617456321,2
174,998,59,0.00209048599984741,0.00833142595559625,2
172,999,59,0.00263981078812848,0.00859082932784009,2
173,999,59,0.00233463035019455,0.00987258716716258,2
172,1000,59,0.00210574502174411,0.0204623483634699,2
173,1000,59,0.00238040741588464,0.00830090791180285,2
172,1001,59,0.00236514839398795,0.00872816052491035,2
173,1001,59,0.00236514839398795,0.0120546272983902,2
173,1002,59,0.002563515678645,0.00839246204318303,2
182,986,60,0.00204470893415732,0.00854505226215,2
179,987,60,0.0301518272678721,0.00865186541542687,2
181,987,60,0.00202944991226062,0.00840772106507973,2
182,987,60,0.00173952849622339,0.00761425192645151,2
178,988,60,0.00259403372243839,0.00910963607232776,2
179,988,60,0.00222781719691768,0.00807202258335241,2
180,988,60,0.00222781719691768,0.00801098649576562,2
181,988,60,0.00244144350347143,0.00871290150301366,2
182,988,60,0.00241092545967803,0.0085297932402533,2
177,989,60,0.0021362630655375,0.00816357671473259,2
178,989,60,0.00247196154726482,0.00819409475852598,2
179,989,60,0.00251773861295491,0.00877393759060044,2
180,989,60,0.002563515678645,0.00859082932784009,2
181,989,60,0.00187685969329366,0.00794995040817884,2
176,990,60,0.00204470893415732,0.0100862134737163,2
177,990,60,0.00230411230640116,0.00891126878767071,2
178,990,60,0.00183108262760357,0.00813305867093919,2
179,990,60,0.015228503852903,0.00793469138628214,2
180,990,60,0.00248722056916152,0.00859082932784009,2
175,991,60,0.00236514839398795,0.00866712443732357,2
176,991,60,0.00219729915312428,0.00799572747386892,2
177,991,60,0.00248722056916152,0.00820935378042268,2
178,991,60,0.00219729915312428,0.00869764248111696,2
179,991,60,0.00238040741588464,0.00860608834973678,2
174,992,60,0.00205996795605402,0.00929274433508812,2
175,992,60,0.00167849240863661,0.00840772106507973,2
176,992,60,0.0016937514305333,0.0144960708018616,2
177,992,60,0.00265506981002518,0.00952162966353857,2
178,992,60,0.00192263675898375,0.00872816052491035,2
179,992,60,0.00184634164950027,0.00885023270008392,2
174,993,60,0.0021362630655375,0.00849927519645991,2
175,993,60,0.00242618448157473,0.00837720302128634,2
176,993,60,0.0021515220874342,0.0080872816052491,2
177,993,60,0.0021515220874342,0.00869764248111696,2
174,994,60,0.00253299763485161,0.00822461280231937,2
175,994,60,0.00209048599984741,0.0104982070649271,2
176,994,60,0.00187685969329366,0.00846875715266651,2
173,995,60,0.00210574502174411,0.0115358205539025,2
174,995,60,0.00216678110933089,0.00859082932784009,2
175,995,60,0.00221255817502098,0.00814831769283589,2
176,995,60,0.0021210040436408,0.00837720302128634,2
174,996,60,0.00224307621881437,0.0138094148165103,2
175,996,60,0.00207522697795071,0.0140993362325475,2
173,997,60,0.00199893186846723,0.00834668497749294,2
174,997,60,0.00233463035019455,0.00831616693369955,2
175,997,60,0.00209048599984741,0.00822461280231937,2
172,998,60,0.00262455176623178,0.00840772106507973,2
173,998,60,0.00280766002899214,0.00863660639353018,2
174,998,60,0.00273136491950866,0.0085145342183566,2
173,999,60,0.00238040741588464,0.00813305867093919,2
174,999,60,0.00268558785381857,0.00791943236438544,2
173,1000,60,0.00207522697795071,0.0104371709773404,2
174,1000,60,0.00181582360570687,0.00836194399938964,2
173,1001,60,0.00282291905088884,0.00833142595559625,2
180,986,61,0.00270084687571527,0.0117189288166629,2
182,986,61,0.00195315480277714,0.00830090791180285,2
179,987,61,0.00209048599984741,0.0134279392690929,2
180,987,61,0.00167849240863661,0.00831616693369955,2
181,987,61,0.00192263675898375,0.01025406271458,2
182,987,61,0.00238040741588464,0.0110627908751049,2
178,988,61,0.0021210040436408,0.00845349813076982,2
179,988,61,0.00198367284657053,0.00840772106507973,2
180,988,61,0.00227359426260777,0.00878919661249714,2
181,988,61,0.00202944991226062,0.00917067215991455,2
177,989,61,0.00216678110933089,0.0147096971084154,2
178,989,61,0.00204470893415732,0.0081177996490425,2
179,989,61,0.00198367284657053,0.00854505226215,2
180,989,61,0.00192263675898375,0.0109102006561379,2
177,990,61,0.00227359426260777,0.00799572747386892,2
178,990,61,0.00279240100709545,0.00862134737163348,2
179,990,61,0.00253299763485161,0.00788891432059205,2
180,990,61,0.00201419089036393,0.00827038986800946,2
175,991,61,0.00201419089036393,0.00839246204318303,2
176,991,61,0.00227359426260777,0.00802624551766232,2
177,991,61,0.00198367284657053,0.0080872816052491,2
178,991,61,0.0021210040436408,0.00840772106507973,2
179,991,61,0.00209048599984741,0.00846875715266651,2
174,992,61,0.00178530556191348,0.00764476997024491,2
175,992,61,0.00231937132829786,0.00885023270008392,2
176,992,61,0.00242618448157473,0.00848401617456321,2
177,992,61,0.00195315480277714,0.0170748455024033,2
178,992,61,0.00205996795605402,0.00827038986800946,2
179,992,61,0.00221255817502098,0.00831616693369955,2
174,993,61,0.00277714198519875,0.00827038986800946,2
175,993,61,0.00227359426260777,0.00817883573662928,2
176,993,61,0.00205996795605402,0.00959792477302205,2
177,993,61,0.00230411230640116,0.00822461280231937,2
176,994,61,0.00288395513847562,0.00932326237888151,2
174,995,61,0.00268558785381857,0.0080872816052491,2
175,995,61,0.00186160067139696,0.00971999694819562,2
176,995,61,0.00195315480277714,0.0147707331960021,2
174,996,61,0.00210574502174411,0.0140077821011673,2
175,996,61,0.00268558785381857,0.0170290684367132,2
176,996,61,0.00222781719691768,0.0160372320134279,2
174,997,61,0.0021515220874342,0.00775158312352178,2
175,997,61,0.00202944991226062,0.00863660639353018,2
173,998,61,0.00221255817502098,0.00898756389715419,2
174,998,61,0.00270084687571527,0.00825513084611276,2
174,999,61,0.00209048599984741,0.0123598077363241,2
174,1000,61,0.00239566643778134,0.00828564888990616,2
174,1001,61,0.00244144350347143,0.0085145342183566,2
180,986,62,0.00196841382467384,0.00833142595559625,2
181,986,62,0.00196841382467384,0.00834668497749294,2
179,987,62,0.00225833524071107,0.00900282291905089,2
180,987,62,0.00245670252536812,0.00840772106507973,2
181,987,62,0.00239566643778134,0.00833142595559625,2
178,988,62,0.00274662394140536,0.00856031128404669,2
179,988,62,0.0223849851224537,0.00796520943007553,2
180,988,62,0.00166323338673991,0.0113527122911421,2
181,988,62,0.00175478751812009,0.0110780498970016,2
177,989,62,0.00137331197070268,0.00845349813076982,2
178,989,62,0.00218204013122759,0.0162050812542916,2
179,989,62,0.00224307621881437,0.0107270923933776,2
180,989,62,0.00218204013122759,0.00785839627679866,2
176,990,62,0.0021362630655375,0.00869764248111696,2
177,990,62,0.00260929274433509,0.00779736018921187,2
178,990,62,0.0017242694743267,0.00834668497749294,2
179,990,62,0.00170901045243,0.00874341954680705,2
180,990,62,0.00228885328450446,0.00849927519645991,2
176,991,62,0.00189211871519036,0.0195315480277714,2
177,991,62,0.00218204013122759,0.00866712443732357,2
178,991,62,0.00219729915312428,0.0085145342183566,2
179,991,62,0.00219729915312428,0.00813305867093919,2
175,992,62,0.00242618448157473,0.00845349813076982,2
176,992,62,0.00291447318226902,0.00823987182421607,2
177,992,62,0.00186160067139696,0.0232852674143587,2
175,993,62,0.0156862745098039,0.00859082932784009,2
176,993,62,0.00175478751812009,0.00881971465629053,2
174,994,62,0.00181582360570687,0.0117189288166629,2
175,994,62,0.00244144350347143,0.00950637064164187,2
176,994,62,0.00218204013122759,0.00753795681696803,2
177,994,62,0.00219729915312428,0.00839246204318303,2
174,995,62,0.00190737773708705,0.00909437705043107,2
175,995,62,0.00210574502174411,0.00836194399938964,2
176,995,62,0.00178530556191348,0.0108186465247578,2
175,996,62,0.00225833524071107,0.0166628519111925,2
176,996,62,0.0113984893568322,0.0115968566414893,2
174,997,62,0.00157167925535973,0.00872816052491035,2
175,997,62,0.00196841382467384,0.00785839627679866,2
174,998,62,0.0021515220874342,0.00845349813076982,2
175,998,62,0.00167849240863661,0.00932326237888151,2
174,999,62,0.00218204013122759,0.00794995040817884,2
174,1001,62,0.00270084687571527,0.00877393759060044,2
179,987,63,0.00239566643778134,0.00799572747386892,2
180,987,63,0.00166323338673991,0.00830090791180285,2
181,987,63,0.00192263675898375,0.00849927519645991,2
179,988,63,0.00265506981002518,0.00889600976577401,2
180,988,63,0.00393682764934768,0.00827038986800946,2
178,989,63,0.00233463035019455,0.00871290150301366,2
179,989,63,0.00199893186846723,0.00831616693369955,2
180,989,63,0.00187685969329366,0.0080872816052491,2
181,989,63,0.00231937132829786,0.00816357671473259,2
177,990,63,0.00224307621881437,0.00833142595559625,2
178,990,63,0.00192263675898375,0.00788891432059205,2
179,990,63,0.00253299763485161,0.00842298008697642,2
176,991,63,0.00228885328450446,0.0101625085831998,2
177,991,63,0.00263981078812848,0.00833142595559625,2
178,991,63,0.00216678110933089,0.00862134737163348,2
176,992,63,0.00236514839398795,0.00874341954680705,2
177,992,63,0.00242618448157473,0.00782787823300526,2
174,993,63,0.00189211871519036,0.0204013122758831,2
175,993,63,0.00230411230640116,0.00779736018921187,2
176,993,63,0.00205996795605402,0.00886549172198062,2
175,994,63,0.00250247959105821,0.00862134737163348,2
176,994,63,0.00225833524071107,0.00839246204318303,2
177,994,63,0.00248722056916152,0.00820935378042268,2
175,995,63,0.00144960708018616,0.00843823910887312,2
176,995,63,0.00231937132829786,0.00874341954680705,2
175,996,63,0.00286869611657893,0.00807202258335241,2
176,996,63,0.00189211871519036,0.0116578927290761,2
175,997,63,0.00202944991226062,0.00834668497749294,2
176,997,63,0.0025787747005417,0.00834668497749294,2
175,998,63,0.00260929274433509,0.00827038986800946,2
175,999,63,0.00238040741588464,0.00825513084611276,2
175,1000,63,0.00183108262760357,0.00778210116731518,2
175,1001,63,0.00224307621881437,0.0169222552834363,2
181,987,64,0.00260929274433509,0.00871290150301366,2
179,988,64,0.002563515678645,0.00819409475852598,2
180,988,64,0.00209048599984741,0.00874341954680705,2
181,988,64,0.00157167925535973,0.00825513084611276,2
178,989,64,0.00186160067139696,0.0089570458533608,2
179,989,64,0.00189211871519036,0.00814831769283589,2
180,989,64,0.00236514839398795,0.0134889753566796,2
177,990,64,0.00178530556191348,0.0208743419546807,2
178,990,64,0.00238040741588464,0.00833142595559625,2
179,990,64,0.00251773861295491,0.00839246204318303,2
177,991,64,0.00531013962005035,0.00868238345922026,2
178,991,64,0.00332646677347982,0.00871290150301366,2
175,992,64,0.00183108262760357,0.0166018158236057,2
176,992,64,0.00183108262760357,0.00833142595559625,2
177,992,64,0.00239566643778134,0.0101625085831998,2
175,993,64,0.00230411230640116,0.00799572747386892,2
176,993,64,0.00219729915312428,0.00871290150301366,2
177,993,64,0.00173952849622339,0.00842298008697642,2
175,994,64,0.00192263675898375,0.00857557030594339,2
176,994,64,0.00196841382467384,0.00799572747386892,2
177,994,64,0.00233463035019455,0.00857557030594339,2
176,995,64,0.00250247959105821,0.00878919661249714,2
177,995,64,0.00192263675898375,0.00839246204318303,2
176,996,64,0.00219729915312428,0.00874341954680705,2
177,996,64,0.00251773861295491,0.0128328374151217,2
175,997,64,0.00274662394140536,0.00865186541542687,2
176,997,64,0.00209048599984741,0.00787365529869535,2
175,999,64,0.00198367284657053,0.0089570458533608,2
175,1001,64,0.00335698481727321,0.00814831769283589,2
179,988,65,0.00286869611657893,0.0189059281300069,2
180,988,65,0.00222781719691768,0.00886549172198062,2
178,989,65,0.0017242694743267,0.00863660639353018,2
179,989,65,0.0017242694743267,0.00988784618905928,2
180,989,65,0.00260929274433509,0.00878919661249714,2
181,989,65,0.00207522697795071,0.00880445563439384,2
178,990,65,0.0021515220874342,0.00849927519645991,2
179,990,65,0.00231937132829786,0.00825513084611276,2
177,991,65,0.0021362630655375,0.00813305867093919,2
175,992,65,0.00196841382467384,0.00871290150301366,2
177,992,65,0.00294499122606241,0.00842298008697642,2
175,993,65,0.00260929274433509,0.00920119020370794,2
177,993,65,0.00222781719691768,0.00910963607232776,2
176,994,65,0.00241092545967803,0.00857557030594339,2
177,994,65,0.00218204013122759,0.00845349813076982,2
176,995,65,0.0038300144960708,0.00825513084611276,2
177,995,65,0.00216678110933089,0.00859082932784009,2
176,996,65,0.0168154421301595,0.00877393759060044,2
177,996,65,0.00196841382467384,0.0115663385976959,2
176,997,65,0.00227359426260777,0.014023041123064,2
175,999,65,0.00370794232089723,0.00891126878767071,2
179,989,66,0.00247196154726482,0.00843823910887312,2
180,989,66,0.00236514839398795,0.00869764248111696,2
178,990,66,0.00196841382467384,0.00865186541542687,2
179,990,66,0.00177004654001678,0.00869764248111696,2
177,991,66,0.00181582360570687,0.0125429159990845,2
178,991,66,0.00241092545967803,0.00971999694819562,2
177,992,66,0.00210574502174411,0.00846875715266651,2
177,993,66,0.00230411230640116,0.0128633554589151,2
177,994,66,0.00204470893415732,0.0081025406271458,2
176,995,66,0.00242618448157473,0.00914015411612116,2
177,995,66,0.00230411230640116,0.00872816052491035,2
176,996,66,0.00251773861295491,0.0081025406271458,2
176,997,66,0.00205996795605402,0.00872816052491035,2
175,998,66,0.00280766002899214,0.00770580605783169,2
175,999,66,0.00202944991226062,0.0100404364080262,2
175,1000,66,0.00277714198519875,0.0139467460135805,2
175,1001,66,0.0237888151369497,0.00819409475852598,2
179,989,67,0.00193789578088045,0.00849927519645991,2
180,989,67,0.00155642023346304,0.00814831769283589,2
178,990,67,0.00199893186846723,0.00860608834973678,2
177,991,67,0.0021515220874342,0.00886549172198062,2
177,992,67,0.00241092545967803,0.00854505226215,2
177,993,67,0.00222781719691768,0.00807202258335241,2
176,994,67,0.00225833524071107,0.00794995040817884,2
177,994,67,0.00198367284657053,0.0085297932402533,2
176,995,67,0.00155642023346304,0.00865186541542687,2
177,995,67,0.00219729915312428,0.00885023270008392,2
176,996,67,0.00262455176623178,0.00790417334248875,2
179,989,68,0.00231937132829786,0.00857557030594339,2
178,990,68,0.0016937514305333,0.00859082932784009,2
177,992,68,0.00205996795605402,0.0113832303349355,2
176,994,68,0.0295262073701076,0.00869764248111696,2
177,994,68,0.00184634164950027,0.00863660639353018,2
176,995,68,0.00202944991226062,0.00988784618905928,2
175,997,68,0.0021210040436408,0.013321126115816,2
