x,y,z,fucci_ch00,fucci_ch02,cellCycle
354,126,1,0.00242618448157473,0.054337376974136,2
355,126,1,0.00199893186846723,0.00833142595559625,2
356,126,1,0.0101625085831998,0.0089417868314641,2
356,124,2,0.00202944991226062,0.0166323338673991,2
354,125,2,0.0539864194705119,0.00869764248111696,2
356,125,2,0.00877393759060044,0.00856031128404669,2
352,126,2,0.00204470893415732,0.00825513084611276,2
353,126,2,0.00167849240863661,0.00973525597009232,2
354,126,2,0.00181582360570687,0.00846875715266651,2
355,126,2,0.00216678110933089,0.00866712443732357,2
356,126,2,0.0516517891203174,0.00860608834973678,2
351,127,2,0.00657663843747616,0.0098115510795758,2
352,127,2,0.010757610437171,0.0218204013122759,2
353,127,2,0.0158388647287709,0.015228503852903,2
354,127,2,0.00968947890440223,0.00990310521095598,2
355,127,2,0.0441290913252461,0.0072632944228275,2
356,127,2,0.0211490043488212,0.0120546272983902,2
351,128,2,0.0297856107423514,0.00958266575112535,2
352,128,2,0.00651560234988937,0.0110322728313115,2
353,128,2,0.0195773250934615,0.00885023270008392,2
354,128,2,0.0243686579690242,0.00843823910887312,2
355,128,2,0.0021210040436408,0.00834668497749294,2
356,128,2,0.00231937132829786,0.0140688181887541,2
353,129,2,0.00184634164950027,0.00823987182421607,2
354,129,2,0.00163271534294652,0.0106660563057908,2
355,129,2,0.00216678110933089,0.0397802700846876,2
356,129,2,0.00801098649576562,0.0297245746547646,2
354,130,2,0.0231631952391852,0.00865186541542687,2
355,130,2,0.00199893186846723,0.0156862745098039,2
356,130,2,0.00160219729915312,0.0147096971084154,2
355,123,3,0.00260929274433509,0.0206759746700237,2
353,124,3,0.0172274357213703,0.011459525444419,2
355,124,3,0.00199893186846723,0.012466620889601,2
356,124,3,0.00234988937209125,0.0110322728313115,2
357,124,3,0.00219729915312428,0.0117341878385595,2
353,125,3,0.00265506981002518,0.0132448310063325,2
354,125,3,0.00230411230640116,0.0114290074006256,2
355,125,3,0.0229343099107347,0.00785839627679866,2
356,125,3,0.00242618448157473,0.0118257419699397,2
357,125,3,0.00268558785381857,0.0140077821011673,2
352,126,3,0.00234988937209125,0.0156099794003204,2
353,126,3,0.00238040741588464,0.00962844281681544,2
354,126,3,0.0208896009765774,0.0196993972686351,2
355,126,3,0.00271610589761196,0.011810482948043,2
356,126,3,0.00163271534294652,0.0111543450064851,2
357,126,3,0.00241092545967803,0.00840772106507973,2
351,127,3,0.00228885328450446,0.0120698863202869,2
352,127,3,0.00241092545967803,0.0085297932402533,2
353,127,3,0.0317540245670253,0.00865186541542687,2
354,127,3,0.0176394293125811,0.00874341954680705,2
355,127,3,0.0021210040436408,0.0100404364080262,2
356,127,3,0.0198672465094987,0.0081177996490425,2
357,127,3,0.00192263675898375,0.0126344701304646,2
353,128,3,0.00189211871519036,0.0137178606851301,2
354,128,3,0.0021515220874342,0.0134737163347829,2
355,128,3,0.0157473105973907,0.0117341878385595,2
356,128,3,0.00238040741588464,0.0243686579690242,2
357,128,3,0.00221255817502098,0.00816357671473259,2
354,129,3,0.0133058670939193,0.0117647058823529,2
355,129,3,0.0103456168459602,0.00871290150301366,2
356,129,3,0.00201419089036393,0.00967421988250553,2
355,130,3,0.00251773861295491,0.00822461280231937,2
357,122,4,0.00233463035019455,0.00820935378042268,2
353,123,4,0.00263981078812848,0.00840772106507973,2
354,123,4,0.00228885328450446,0.00794995040817884,2
355,123,4,0.00567635614557107,0.0169222552834363,2
357,123,4,0.00271610589761196,0.0106660563057908,2
358,123,4,0.00251773861295491,0.0123292896925307,2
353,124,4,0.027542534523537,0.0137788967727169,2
354,124,4,0.00267032883192187,0.021210040436408,2
355,124,4,0.00209048599984741,0.00827038986800946,2
356,124,4,0.00192263675898375,0.0160067139696345,2
357,124,4,0.00209048599984741,0.0114747844663157,2
358,124,4,0.00251773861295491,0.00837720302128634,2
352,125,4,0.00216678110933089,0.0102235446707866,2
353,125,4,0.0176546883344778,0.00816357671473259,2
354,125,4,0.0227969787136645,0.0209048599984741,2
355,125,4,0.00251773861295491,0.0130922407873655,2
356,125,4,0.00251773861295491,0.0101472495613031,2
357,125,4,0.00247196154726482,0.0280613412680247,2
358,125,4,0.00321965362020294,0.0179293507286183,2
359,125,4,0.00248722056916152,0.00944533455405508,2
351,126,4,0.00221255817502098,0.00776684214541848,2
352,126,4,0.00239566643778134,0.0081177996490425,2
353,126,4,0.020004577706569,0.00849927519645991,2
354,126,4,0.00204470893415732,0.00868238345922026,2
355,126,4,0.00204470893415732,0.00813305867093919,2
356,126,4,0.00238040741588464,0.0190127412832837,2
357,126,4,0.00230411230640116,0.0208285648889906,2
358,126,4,0.00221255817502098,0.00874341954680705,2
359,126,4,0.00230411230640116,0.0141603723201343,2
351,127,4,0.00526436255436027,0.0204928664072633,2
352,127,4,0.00231937132829786,0.00775158312352178,2
353,127,4,0.00227359426260777,0.00755321583886473,2
354,127,4,0.00219729915312428,0.00827038986800946,2
355,127,4,0.0021362630655375,0.00875867856870375,2
356,127,4,0.00233463035019455,0.00819409475852598,2
357,127,4,0.00202944991226062,0.0076600289921416,2
352,128,4,0.0278019378957809,0.0105592431525139,2
353,128,4,0.00315861753261616,0.00843823910887312,2
354,128,4,0.00402838178072786,0.00952162966353857,2
355,128,4,0.0246585793850614,0.00839246204318303,2
356,128,4,0.0207675288014038,0.00891126878767071,2
357,128,4,0.00173952849622339,0.00866712443732357,2
353,129,4,0.00247196154726482,0.0228427557793545,2
354,129,4,0.00303654535744259,0.00836194399938964,2
355,129,4,0.00695811398489357,0.00839246204318303,2
356,129,4,0.00209048599984741,0.0204776073853666,2
354,130,4,0.036743724727245,0.00845349813076982,2
355,130,4,0.00263981078812848,0.00903334096284428,2
353,122,5,0.00205996795605402,0.0224917982757305,2
354,122,5,0.00228885328450446,0.0109864957656214,2
355,122,5,0.00175478751812009,0.00883497367818723,2
356,122,5,0.00175478751812009,0.0112001220721752,2
357,122,5,0.00177004654001678,0.0100251773861295,2
358,122,5,0.00202944991226062,0.00805676356145571,2
353,123,5,0.00228885328450446,0.0223849851224537,2
354,123,5,0.00234988937209125,0.00804150453955901,2
355,123,5,0.0144655527580682,0.00848401617456321,2
356,123,5,0.0119783321889067,0.0151827267872129,2
357,123,5,0.00158693827725643,0.00877393759060044,2
358,123,5,0.0132448310063325,0.0081025406271458,2
352,124,5,0.00222781719691768,0.00804150453955901,2
353,124,5,0.00181582360570687,0.00819409475852598,2
354,124,5,0.00141908903639277,0.00860608834973678,2
355,124,5,0.00239566643778134,0.0103761348897536,2
356,124,5,0.00228885328450446,0.00790417334248875,2
357,124,5,0.00204470893415732,0.00842298008697642,2
358,124,5,0.00184634164950027,0.00883497367818723,2
359,124,5,0.00178530556191348,0.00886549172198062,2
360,124,5,0.00259403372243839,0.00889600976577401,2
351,125,5,0.00224307621881437,0.0197299153124285,2
352,125,5,0.00224307621881437,0.00822461280231937,2
353,125,5,0.00230411230640116,0.0122987716487373,2
354,125,5,0.00183108262760357,0.0104371709773404,2
355,125,5,0.00207522697795071,0.0113527122911421,2
356,125,5,0.00234988937209125,0.011261158159762,2
357,125,5,0.0290684367132067,0.0174715800717174,2
358,125,5,0.00419623102159152,0.0121919584954604,2
359,125,5,0.00236514839398795,0.00953688868543526,2
360,125,5,0.011108567940795,0.00927748531319142,2
351,126,5,0.0021362630655375,0.0142214084077211,2
352,126,5,0.00187685969329366,0.0110170138094148,2
353,126,5,0.00202944991226062,0.0114442664225223,2
354,126,5,0.00234988937209125,0.0124818799114977,2
355,126,5,0.00834668497749294,0.0085145342183566,2
356,126,5,0.00373846036469062,0.00860608834973678,2
357,126,5,0.00366216525520714,0.0085145342183566,2
358,126,5,0.00950637064164187,0.017441062027924,2
359,126,5,0.00279240100709545,0.00776684214541848,2
360,126,5,0.00799572747386892,0.00807202258335241,2
351,127,5,0.00205996795605402,0.00804150453955901,2
352,127,5,0.0360265506981002,0.0093842984664683,2
353,127,5,0.00195315480277714,0.0258487830930037,2
354,127,5,0.00465400167849241,0.024628061341268,2
355,127,5,0.00228885328450446,0.0197299153124285,2
356,127,5,0.00210574502174411,0.0190890363927672,2
357,127,5,0.00184634164950027,0.0166170748455024,2
358,127,5,0.00205996795605402,0.00837720302128634,2
359,127,5,0.00210574502174411,0.0157167925535973,2
352,128,5,0.0016937514305333,0.00872816052491035,2
353,128,5,0.00204470893415732,0.00827038986800946,2
354,128,5,0.00785839627679866,0.00856031128404669,2
355,128,5,0.0113527122911421,0.00903334096284428,2
356,128,5,0.00201419089036393,0.00943007553215839,2
357,128,5,0.00195315480277714,0.00872816052491035,2
353,129,5,0.00151064316777295,0.00889600976577401,2
354,129,5,0.00173952849622339,0.00869764248111696,2
355,129,5,0.00193789578088045,0.0119020370794232,2
356,129,5,0.00244144350347143,0.0120241092545968,2
357,129,5,0.052323186083772,0.00849927519645991,2
354,130,5,0.00219729915312428,0.0143129625391012,2
355,130,5,0.00140383001449607,0.0085145342183566,2
356,130,5,0.00885023270008392,0.00872816052491035,2
353,122,6,0.00201419089036393,0.00862134737163348,2
354,122,6,0.00189211871519036,0.00798046845197223,2
355,122,6,0.00244144350347143,0.00993362325474937,2
356,122,6,0.00238040741588464,0.00827038986800946,2
357,122,6,0.00242618448157473,0.00827038986800946,2
358,122,6,0.0016937514305333,0.00825513084611276,2
353,123,6,0.00607309071488518,0.019150072480354,2
354,123,6,0.00271610589761196,0.00837720302128634,2
355,123,6,0.00196841382467384,0.0113984893568322,2
356,123,6,0.00544747081712062,0.00781261921110857,2
357,123,6,0.00189211871519036,0.00782787823300526,2
358,123,6,0.00242618448157473,0.0107881284809644,2
352,124,6,0.00221255817502098,0.00784313725490196,2
353,124,6,0.0198672465094987,0.0120393682764935,2
354,124,6,0.0104371709773404,0.0117341878385595,2
355,124,6,0.00830090791180285,0.0227817196917678,2
356,124,6,0.00241092545967803,0.00866712443732357,2
357,124,6,0.00180056458381018,0.0204318303196765,2
358,124,6,0.00205996795605402,0.0103150988021668,2
359,124,6,0.0229953459983215,0.0127565423056382,2
360,124,6,0.00546272983901732,0.00961318379491875,2
351,125,6,0.0387273975738155,0.00886549172198062,2
352,125,6,0.00238040741588464,0.0196078431372549,2
353,125,6,0.00238040741588464,0.00793469138628214,2
354,125,6,0.0101167315175097,0.0149843595025559,2
355,125,6,0.00915541313801785,0.00874341954680705,2
356,125,6,0.00209048599984741,0.00828564888990616,2
357,125,6,0.00247196154726482,0.00877393759060044,2
358,125,6,0.002563515678645,0.0129091325246052,2
359,125,6,0.00210574502174411,0.0175631342030976,2
360,125,6,0.00234988937209125,0.00848401617456321,2
350,126,6,0.00648508430609598,0.0103913939116503,2
351,126,6,0.0150606546120394,0.00746166170748455,2
352,126,6,0.00282291905088884,0.0112306401159686,2
353,126,6,0.00251773861295491,0.00848401617456321,2
354,126,6,0.00277714198519875,0.00834668497749294,2
355,126,6,0.00268558785381857,0.00805676356145571,2
356,126,6,0.00228885328450446,0.00817883573662928,2
357,126,6,0.00230411230640116,0.00877393759060044,2
358,126,6,0.00250247959105821,0.00843823910887312,2
359,126,6,0.00245670252536812,0.00869764248111696,2
353,127,6,0.00158693827725643,0.0140535591668574,2
354,127,6,0.00196841382467384,0.00871290150301366,2
355,127,6,0.00221255817502098,0.0128938735027085,2
356,127,6,0.00224307621881437,0.00923170824750134,2
357,127,6,0.0016937514305333,0.00749217975127794,2
358,127,6,0.00421149004348821,0.0085145342183566,2
359,127,6,0.00218204013122759,0.00849927519645991,2
352,128,6,0.00238040741588464,0.00878919661249714,2
353,128,6,0.00796520943007553,0.00943007553215839,2
354,128,6,0.020157167925536,0.00743114366369116,2
355,128,6,0.00190737773708705,0.00830090791180285,2
356,128,6,0.00227359426260777,0.00860608834973678,2
357,128,6,0.00267032883192187,0.00804150453955901,2
358,128,6,0.00955214770733196,0.0209658960860609,2
353,129,6,0.0186923018234531,0.00950637064164187,2
354,129,6,0.0220492866407263,0.00891126878767071,2
355,129,6,0.00196841382467384,0.00798046845197223,2
356,129,6,0.00230411230640116,0.00822461280231937,2
357,129,6,0.0021362630655375,0.00827038986800946,2
353,130,6,0.00204470893415732,0.00770580605783169,2
354,130,6,0.0411841000991836,0.00834668497749294,2
355,130,6,0.00285343709468223,0.00883497367818723,2
356,130,6,0.00202944991226062,0.00839246204318303,2
356,119,7,0.00286869611657893,0.0109712367437247,2
357,119,7,0.00242618448157473,0.0162203402761883,2
358,119,7,0.0012817578393225,0.0185244525825895,2
356,120,7,0.00195315480277714,0.00758373388265812,2
357,120,7,0.00248722056916152,0.00787365529869535,2
358,120,7,0.002563515678645,0.0085145342183566,2
356,121,7,0.00173952849622339,0.0207370107576104,2
357,121,7,0.0135042343785763,0.00816357671473259,2
358,121,7,0.00787365529869535,0.011108567940795,2
353,122,7,0.00178530556191348,0.0127107652399481,2
354,122,7,0.00195315480277714,0.0128633554589151,2
355,122,7,0.00387579156176089,0.00799572747386892,2
356,122,7,0.0205844205386435,0.00801098649576562,2
357,122,7,0.00221255817502098,0.0179903868162051,2
358,122,7,0.0168764782177462,0.00929274433508812,2
353,123,7,0.00193789578088045,0.00886549172198062,2
354,123,7,0.00192263675898375,0.00875867856870375,2
355,123,7,0.00230411230640116,0.00854505226215,2
356,123,7,0.00178530556191348,0.0081177996490425,2
357,123,7,0.00209048599984741,0.00819409475852598,2
358,123,7,0.0265659571221485,0.00869764248111696,2
352,124,7,0.00190737773708705,0.00802624551766232,2
353,124,7,0.00233463035019455,0.00794995040817884,2
354,124,7,0.00209048599984741,0.00794995040817884,2
355,124,7,0.00186160067139696,0.00865186541542687,2
356,124,7,0.00190737773708705,0.00843823910887312,2
357,124,7,0.00221255817502098,0.0258945601586938,2
358,124,7,0.00221255817502098,0.0150606546120394,2
359,124,7,0.00196841382467384,0.012664988174258,2
360,124,7,0.00216678110933089,0.0116578927290761,2
351,125,7,0.00704966811627375,0.00791943236438544,2
352,125,7,0.00242618448157473,0.014373998626688,2
353,125,7,0.00201419089036393,0.0135042343785763,2
354,125,7,0.00189211871519036,0.00788891432059205,2
355,125,7,0.00205996795605402,0.00764476997024491,2
356,125,7,0.00164797436484321,0.00978103303578241,2
357,125,7,0.00198367284657053,0.0116273746852827,2
358,125,7,0.0021515220874342,0.00825513084611276,2
359,125,7,0.00834668497749294,0.00793469138628214,2
360,125,7,0.00157167925535973,0.00807202258335241,2
350,126,7,0.00976577401388571,0.00849927519645991,2
351,126,7,0.00242618448157473,0.0154268711375601,2
352,126,7,0.00708018616006714,0.0144350347142748,2
353,126,7,0.0212863355458915,0.0125276569771878,2
354,126,7,0.00154116121156634,0.00871290150301366,2
355,126,7,0.00180056458381018,0.0183260852979324,2
356,126,7,0.00241092545967803,0.00753795681696803,2
357,126,7,0.00189211871519036,0.00762951094834821,2
358,126,7,0.00187685969329366,0.0126497291523613,2
359,126,7,0.00166323338673991,0.00993362325474937,2
351,127,7,0.00546272983901732,0.00833142595559625,2
352,127,7,0.00227359426260777,0.00846875715266651,2
353,127,7,0.0314488441290913,0.00775158312352178,2
354,127,7,0.0349431601434348,0.007690547035935,2
355,127,7,0.007690547035935,0.00891126878767071,2
356,127,7,0.00178530556191348,0.00900282291905089,2
357,127,7,0.00247196154726482,0.012161440451667,2
358,127,7,0.00205996795605402,0.00909437705043107,2
352,128,7,0.00149538414587625,0.0146486610208286,2
353,128,7,0.00292973220416571,0.00830090791180285,2
354,128,7,0.00276188296330205,0.00802624551766232,2
355,128,7,0.0021210040436408,0.00805676356145571,2
356,128,7,0.00251773861295491,0.00828564888990616,2
357,128,7,0.00286869611657893,0.00865186541542687,2
353,129,7,0.00184634164950027,0.00814831769283589,2
354,129,7,0.00250247959105821,0.014023041123064,2
355,129,7,0.00991836423285267,0.0162050812542916,2
356,129,7,0.00233463035019455,0.0076600289921416,2
354,130,7,0.00381475547417411,0.00740062561989776,2
355,130,7,0.0021362630655375,0.0076752880140383,2
357,119,8,0.00216678110933089,0.00845349813076982,2
358,119,8,0.00187685969329366,0.0157778286411841,2
356,120,8,0.00239566643778134,0.00796520943007553,2
357,120,8,0.00239566643778134,0.00816357671473259,2
358,120,8,0.00221255817502098,0.00843823910887312,2
356,121,8,0.00209048599984741,0.00860608834973678,2
357,121,8,0.00216678110933089,0.00833142595559625,2
358,121,8,0.00244144350347143,0.00854505226215,2
354,122,8,0.00177004654001678,0.0115663385976959,2
355,122,8,0.00447089341573205,0.00827038986800946,2
356,122,8,0.00193789578088045,0.00868238345922026,2
357,122,8,0.00224307621881437,0.00822461280231937,2
358,122,8,0.00199893186846723,0.00773632410162509,2
353,123,8,0.0161135271229114,0.0329900053406577,2
354,123,8,0.00222781719691768,0.0135957885099565,2
355,123,8,0.00233463035019455,0.0123903257801175,2
356,123,8,0.0609750514991989,0.0089723048752575,2
357,123,8,0.00184634164950027,0.00813305867093919,2
358,123,8,0.00230411230640116,0.0231174181734951,2
353,124,8,0.00141908903639277,0.00859082932784009,2
354,124,8,0.00167849240863661,0.00891126878767071,2
355,124,8,0.00239566643778134,0.00845349813076982,2
356,124,8,0.0170443274586099,0.00830090791180285,2
357,124,8,0.00186160067139696,0.00759899290455482,2
358,124,8,0.00175478751812009,0.0085145342183566,2
359,124,8,0.00201419089036393,0.0115663385976959,2
360,124,8,0.00204470893415732,0.0193942168307012,2
351,125,8,0.00730907148851759,0.00869764248111696,2
352,125,8,0.0152895399404898,0.00854505226215,2
353,125,8,0.00259403372243839,0.0123292896925307,2
354,125,8,0.00231937132829786,0.00773632410162509,2
355,125,8,0.00994888227664607,0.0175783932249943,2
356,125,8,0.019302662699321,0.00878919661249714,2
357,125,8,0.0021210040436408,0.00839246204318303,2
358,125,8,0.00228885328450446,0.00796520943007553,2
359,125,8,0.00164797436484321,0.00794995040817884,2
360,125,8,0.00163271534294652,0.00877393759060044,2
350,126,8,0.00210574502174411,0.00801098649576562,2
351,126,8,0.00209048599984741,0.0146181429770352,2
352,126,8,0.00157167925535973,0.0118715190356298,2
353,126,8,0.00149538414587625,0.00860608834973678,2
354,126,8,0.0021210040436408,0.00839246204318303,2
355,126,8,0.00230411230640116,0.0125734340428779,2
356,126,8,0.00184634164950027,0.00920119020370794,2
357,126,8,0.00170901045243,0.00836194399938964,2
358,126,8,0.00224307621881437,0.00868238345922026,2
359,126,8,0.00268558785381857,0.0102235446707866,2
351,127,8,0.00260929274433509,0.00961318379491875,2
352,127,8,0.00244144350347143,0.00773632410162509,2
353,127,8,0.00209048599984741,0.00819409475852598,2
354,127,8,0.00166323338673991,0.0304417486839094,2
355,127,8,0.0128328374151217,0.0081177996490425,2
356,127,8,0.0030060273136492,0.0081025406271458,2
357,127,8,0.00196841382467384,0.0130464637216754,2
353,128,8,0.00195315480277714,0.00755321583886473,2
354,128,8,0.00210574502174411,0.00775158312352178,2
355,128,8,0.00222781719691768,0.00854505226215,2
356,128,8,0.00201419089036393,0.00839246204318303,2
357,128,8,0.00236514839398795,0.00863660639353018,2
354,129,8,0.00436408026245518,0.00857557030594339,2
355,129,8,0.00192263675898375,0.00779736018921187,2
356,129,8,0.00482185091935607,0.00843823910887312,2
355,130,8,0.00244144350347143,0.00865186541542687,2
356,118,9,0.0289158464942397,0.00875867856870375,2
357,118,9,0.00195315480277714,0.00807202258335241,2
358,119,9,0.0021515220874342,0.00822461280231937,2
357,120,9,0.0021362630655375,0.00819409475852598,2
358,120,9,0.0184786755168994,0.00860608834973678,2
356,121,9,0.00198367284657053,0.0101167315175097,2
357,121,9,0.00238040741588464,0.0305638208590829,2
358,121,9,0.00244144350347143,0.00822461280231937,2
356,122,9,0.00193789578088045,0.012161440451667,2
357,122,9,0.00236514839398795,0.0171663996337835,2
358,122,9,0.00253299763485161,0.00932326237888151,2
354,123,9,0.00152590218966964,0.0207827878233005,2
355,123,9,0.00242618448157473,0.00904859998474098,2
356,123,9,0.00259403372243839,0.00816357671473259,2
357,123,9,0.00192263675898375,0.00788891432059205,2
358,123,9,0.00135805294880598,0.00822461280231937,2
353,124,9,0.0021210040436408,0.00846875715266651,2
354,124,9,0.00222781719691768,0.00794995040817884,2
355,124,9,0.00186160067139696,0.00886549172198062,2
356,124,9,0.00221255817502098,0.00958266575112535,2
357,124,9,0.00259403372243839,0.00875867856870375,2
358,124,9,0.00231937132829786,0.00846875715266651,2
359,124,9,0.00161745632104982,0.00814831769283589,2
360,124,9,0.00450141145952544,0.00845349813076982,2
353,125,9,0.00328068970778973,0.0085145342183566,2
354,125,9,0.00253299763485161,0.00807202258335241,2
355,125,9,0.00201419089036393,0.00794995040817884,2
356,125,9,0.00184634164950027,0.00831616693369955,2
357,125,9,0.00192263675898375,0.00871290150301366,2
358,125,9,0.0025482566567483,0.0228274967574578,2
359,125,9,0.002563515678645,0.0132143129625391,2
360,125,9,0.00186160067139696,0.00820935378042268,2
352,126,9,0.00205996795605402,0.0264744029907683,2
353,126,9,0.00178530556191348,0.00814831769283589,2
354,126,9,0.010452429999237,0.00845349813076982,2
355,126,9,0.00688181887541009,0.00860608834973678,2
356,126,9,0.00267032883192187,0.00843823910887312,2
357,126,9,0.00241092545967803,0.00845349813076982,2
358,126,9,0.00177004654001678,0.00929274433508812,2
359,126,9,0.00189211871519036,0.00802624551766232,2
353,127,9,0.00219729915312428,0.00921644922560464,2
354,127,9,0.00198367284657053,0.00828564888990616,2
355,127,9,0.00267032883192187,0.00845349813076982,2
356,127,9,0.00231937132829786,0.00875867856870375,2
357,127,9,0.00570687418936446,0.00857557030594339,2
354,128,9,0.00198367284657053,0.00796520943007553,2
355,128,9,0.00221255817502098,0.00776684214541848,2
356,128,9,0.00195315480277714,0.00817883573662928,2
357,128,9,0.0317845426108186,0.0186617837796597,2
356,129,9,0.00239566643778134,0.00846875715266651,2
357,118,10,0.00190737773708705,0.00843823910887312,2
356,119,10,0.0351720454718853,0.0089570458533608,2
357,119,10,0.00241092545967803,0.0104829480430304,2
358,119,10,0.00195315480277714,0.0110017547875181,2
355,120,10,0.00216678110933089,0.00840772106507973,2
356,120,10,0.00222781719691768,0.00860608834973678,2
357,120,10,0.00228885328450446,0.0081177996490425,2
358,120,10,0.0021210040436408,0.0081177996490425,2
356,121,10,0.00225833524071107,0.00848401617456321,2
357,121,10,0.00227359426260777,0.00854505226215,2
355,122,10,0.00207522697795071,0.00764476997024491,2
356,122,10,0.00181582360570687,0.0085297932402533,2
357,122,10,0.00218204013122759,0.0121766994735637,2
358,122,10,0.00227359426260777,0.0129854276340887,2
354,123,10,0.00173952849622339,0.0200808728160525,2
355,123,10,0.00273136491950866,0.00845349813076982,2
356,123,10,0.00228885328450446,0.00827038986800946,2
357,123,10,0.00222781719691768,0.00970473792629892,2
358,123,10,0.0021210040436408,0.0128786144808118,2
354,124,10,0.00273136491950866,0.00993362325474937,2
355,124,10,0.0016937514305333,0.00807202258335241,2
356,124,10,0.00238040741588464,0.00788891432059205,2
357,124,10,0.00209048599984741,0.00920119020370794,2
358,124,10,0.00236514839398795,0.00932326237888151,2
359,124,10,0.00265506981002518,0.00776684214541848,2
360,124,10,0.00236514839398795,0.00817883573662928,2
353,125,10,0.0156099794003204,0.0189822232394903,2
354,125,10,0.00242618448157473,0.011261158159762,2
355,125,10,0.00285343709468223,0.00825513084611276,2
356,125,10,0.00195315480277714,0.00798046845197223,2
357,125,10,0.00190737773708705,0.00846875715266651,2
358,125,10,0.00236514839398795,0.0125123979552911,2
359,125,10,0.00231937132829786,0.00875867856870375,2
360,125,10,0.00239566643778134,0.00814831769283589,2
352,126,10,0.002563515678645,0.00842298008697642,2
353,126,10,0.0063782711528191,0.00863660639353018,2
354,126,10,0.00190737773708705,0.00830090791180285,2
355,126,10,0.00247196154726482,0.010452429999237,2
356,126,10,0.00242618448157473,0.00994888227664607,2
357,126,10,0.0352178225375753,0.0101930266269932,2
358,126,10,0.00178530556191348,0.0175173571374075,2
359,126,10,0.00274662394140536,0.0085145342183566,2
354,127,10,0.0231326771953918,0.00801098649576562,2
355,127,10,0.0162050812542916,0.0220035095750362,2
356,127,10,0.00207522697795071,0.018448157473106,2
357,127,10,0.00228885328450446,0.00828564888990616,2
354,128,10,0.00239566643778134,0.00817883573662928,2
355,128,10,0.0153200579842832,0.00840772106507973,2
356,128,10,0.00167849240863661,0.00820935378042268,2
357,128,10,0.0171663996337835,0.00827038986800946,2
357,118,11,0.00286869611657893,0.00807202258335241,2
358,118,11,0.00274662394140536,0.00964370183871214,2
357,119,11,0.00187685969329366,0.0115205615320058,2
358,119,11,0.00259403372243839,0.0105592431525139,2
355,120,11,0.00233463035019455,0.00849927519645991,2
356,120,11,0.00250247959105821,0.00862134737163348,2
357,120,11,0.00173952849622339,0.0117647058823529,2
358,120,11,0.00196841382467384,0.014373998626688,2
356,121,11,0.00273136491950866,0.00833142595559625,2
357,121,11,0.00556954299229419,0.0085297932402533,2
355,122,11,0.00222781719691768,0.00845349813076982,2
356,122,11,0.00210574502174411,0.00816357671473259,2
357,122,11,0.00198367284657053,0.00822461280231937,2
358,122,11,0.00225833524071107,0.0156557564660105,2
355,123,11,0.0098115510795758,0.0120698863202869,2
356,123,11,0.00360112916762036,0.0154268711375601,2
357,123,11,0.00354009308003357,0.00798046845197223,2
358,123,11,0.00233463035019455,0.00968947890440223,2
354,124,11,0.00209048599984741,0.0166323338673991,2
355,124,11,0.00209048599984741,0.0081025406271458,2
356,124,11,0.0021515220874342,0.00776684214541848,2
357,124,11,0.00997940032043946,0.0112153810940719,2
358,124,11,0.00234988937209125,0.00825513084611276,2
360,124,11,0.00250247959105821,0.00779736018921187,2
354,125,11,0.0021210040436408,0.00831616693369955,2
355,125,11,0.00186160067139696,0.00906385900663768,2
356,125,11,0.0176852063782712,0.00813305867093919,2
357,125,11,0.00219729915312428,0.00781261921110857,2
358,125,11,0.00242618448157473,0.00814831769283589,2
359,125,11,0.0021210040436408,0.00875867856870375,2
360,125,11,0.00146486610208286,0.00859082932784009,2
353,126,11,0.0017242694743267,0.00779736018921187,2
354,126,11,0.0021362630655375,0.0180666819256886,2
355,126,11,0.00221255817502098,0.00840772106507973,2
356,126,11,0.0021515220874342,0.0105439841306172,2
357,126,11,0.00141908903639277,0.0102693217364767,2
358,126,11,0.0021210040436408,0.00860608834973678,2
359,126,11,0.00244144350347143,0.007690547035935,2
360,126,11,0.00202944991226062,0.00883497367818723,2
354,127,11,0.00160219729915312,0.00900282291905089,2
355,127,11,0.00189211871519036,0.0081177996490425,2
356,127,11,0.00218204013122759,0.00802624551766232,2
357,127,11,0.00236514839398795,0.00909437705043107,2
359,127,11,0.0166781109330892,0.00865186541542687,2
356,128,11,0.00201419089036393,0.00962844281681544,2
357,119,12,0.002563515678645,0.0130617227435721,2
355,120,12,0.0025482566567483,0.00857557030594339,2
356,120,12,0.00175478751812009,0.00761425192645151,2
357,120,12,0.00143434805828946,0.00785839627679866,2
355,121,12,0.00205996795605402,0.00823987182421607,2
356,121,12,0.00234988937209125,0.0089417868314641,2
357,121,12,0.0021515220874342,0.00796520943007553,2
355,122,12,0.00178530556191348,0.00799572747386892,2
356,122,12,0.00347905699244678,0.00921644922560464,2
355,123,12,0.00282291905088884,0.00840772106507973,2
356,123,12,0.00170901045243,0.0125276569771878,2
357,123,12,0.0016937514305333,0.00825513084611276,2
354,124,12,0.0021210040436408,0.0081025406271458,2
355,124,12,0.00210574502174411,0.00856031128404669,2
356,124,12,0.00276188296330205,0.0089723048752575,2
357,124,12,0.0021210040436408,0.00856031128404669,2
354,125,12,0.00210574502174411,0.00794995040817884,2
355,125,12,0.00146486610208286,0.00798046845197223,2
356,125,12,0.00207522697795071,0.00849927519645991,2
357,125,12,0.00218204013122759,0.00860608834973678,2
360,125,12,0.00196841382467384,0.00836194399938964,2
354,126,12,0.0226291294728008,0.00865186541542687,2
355,126,12,0.00292973220416571,0.0080872816052491,2
356,126,12,0.00193789578088045,0.00845349813076982,2
357,126,12,0.00155642023346304,0.0123292896925307,2
358,126,12,0.00230411230640116,0.0100404364080262,2
359,126,12,0.00274662394140536,0.0103150988021668,2
355,127,12,0.00192263675898375,0.0159609369039445,2
356,127,12,0.00276188296330205,0.0168154421301595,2
357,127,12,0.00238040741588464,0.00781261921110857,2
355,120,13,0.00202944991226062,0.00842298008697642,2
356,120,13,0.00224307621881437,0.00874341954680705,2
357,120,13,0.00279240100709545,0.00845349813076982,2
355,121,13,0.00190737773708705,0.00906385900663768,2
356,121,13,0.00201419089036393,0.00862134737163348,2
357,121,13,0.00181582360570687,0.00845349813076982,2
356,122,13,0.00202944991226062,0.00814831769283589,2
355,123,13,0.00238040741588464,0.00859082932784009,2
356,124,13,0.00224307621881437,0.00871290150301366,2
357,124,13,0.00201419089036393,0.0129549095902953,2
355,125,13,0.0025787747005417,0.00799572747386892,2
356,125,13,0.00242618448157473,0.00773632410162509,2
357,125,13,0.00196841382467384,0.00823987182421607,2
354,126,13,0.00230411230640116,0.0192568856336309,2
355,126,13,0.00227359426260777,0.00875867856870375,2
356,126,13,0.0030060273136492,0.00849927519645991,2
357,126,13,0.00227359426260777,0.00785839627679866,2
356,127,13,0.012115663385977,0.00822461280231937,2
357,127,13,0.00274662394140536,0.00875867856870375,2
355,120,14,0.00189211871519036,0.00947585259784848,2
362,126,1,0.0344090943770504,0.00976577401388571,2
362,127,1,0.0204928664072633,0.0108644235904479,2
362,128,1,0.00518806744487678,0.00959792477302205,2
362,129,1,0.00204470893415732,0.00817883573662928,2
363,129,1,0.00189211871519036,0.00828564888990616,2
361,130,1,0.0299992370489052,0.00837720302128634,2
362,130,1,0.00251773861295491,0.022919050888838,2
361,131,1,0.0021210040436408,0.00784313725490196,2
362,131,1,0.0016937514305333,0.00860608834973678,2
361,132,1,0.00195315480277714,0.00878919661249714,2
362,126,2,0.00193789578088045,0.0107270923933776,2
363,126,2,0.00202944991226062,0.00784313725490196,2
361,127,2,0.0387884336614023,0.01879911497673,2
362,127,2,0.00187685969329366,0.0115968566414893,2
363,127,2,0.00207522697795071,0.0146334019989319,2
361,128,2,0.0308995193408103,0.00968947890440223,2
362,128,2,0.0138094148165103,0.0209201190203708,2
363,128,2,0.00244144350347143,0.0163729304951553,2
361,129,2,0.00500495918211643,0.00869764248111696,2
362,129,2,0.00196841382467384,0.0154573891813535,2
363,129,2,0.010101472495613,0.0111238269626917,2
364,129,2,0.0210879682612345,0.0233768215457389,2
361,130,2,0.00177004654001678,0.0226138704509041,2
362,130,2,0.0383306630045014,0.0152742809185931,2
361,131,2,0.00927748531319142,0.0192263675898375,2
362,131,2,0.00518806744487678,0.019851987487602,2
361,132,2,0.00195315480277714,0.011459525444419,2
362,125,3,0.0272831311512932,0.00805676356145571,2
363,125,3,0.00234988937209125,0.00965896086060884,2
362,126,3,0.00205996795605402,0.00891126878767071,2
363,126,3,0.0314030670634012,0.00874341954680705,2
361,127,3,0.0210879682612345,0.00872816052491035,2
362,127,3,0.00222781719691768,0.00837720302128634,2
363,127,3,0.0199740596627756,0.019851987487602,2
364,127,3,0.00236514839398795,0.00889600976577401,2
361,128,3,0.00233463035019455,0.0151369497215229,2
362,128,3,0.0191348134584573,0.0103456168459602,2
363,128,3,0.00390630960555428,0.0104219119554437,2
361,129,3,0.00677500572213321,0.0133974212252995,2
362,129,3,0.0175326161593042,0.00840772106507973,2
363,129,3,0.00465400167849241,0.00849927519645991,2
361,130,3,0.0230869001297017,0.010452429999237,2
362,130,3,0.0021515220874342,0.0114290074006256,2
363,130,3,0.00186160067139696,0.00756847486076143,2
361,131,3,0.00241092545967803,0.0137483787289235,2
362,131,3,0.0021362630655375,0.0227969787136645,2
363,125,4,0.0731517509727626,0.0187228198672465,2
364,125,4,0.0224307621881437,0.00863660639353018,2
361,126,4,0.00227359426260777,0.007690547035935,2
362,126,4,0.0021210040436408,0.00958266575112535,2
363,126,4,0.00227359426260777,0.00918593118181125,2
364,126,4,0.00190737773708705,0.00790417334248875,2
361,127,4,0.00218204013122759,0.0114900434882124,2
362,127,4,0.00198367284657053,0.0108949416342412,2
363,127,4,0.00241092545967803,0.00813305867093919,2
364,127,4,0.0211947814145113,0.00830090791180285,2
361,128,4,0.0224765392538338,0.00880445563439384,2
362,128,4,0.0167238879987793,0.0186312657358663,2
363,128,4,0.00492866407263294,0.00825513084611276,2
364,128,4,0.00234988937209125,0.013015945677882,2
361,129,4,0.00186160067139696,0.0145723659113451,2
362,129,4,0.0021210040436408,0.00918593118181125,2
363,129,4,0.0116731517509728,0.00857557030594339,2
364,129,4,0.0164187075608454,0.0341954680704967,2
356,130,4,0.0807354848554208,0.011459525444419,2
361,130,4,0.00369268329900053,0.00990310521095598,2
362,130,4,0.00695811398489357,0.009399557488365,2
363,130,4,0.00177004654001678,0.00801098649576562,2
356,131,4,0.0103761348897536,0.0138094148165103,2
361,131,4,0.014679179064622,0.0143129625391012,2
362,131,4,0.0228580148012512,0.0129091325246052,2
361,132,4,0.0105287251087205,0.00869764248111696,2
362,124,5,0.00170901045243,0.0100862134737163,2
363,124,5,0.00752269779507134,0.0153505760280766,2
364,124,5,0.0124513618677043,0.00845349813076982,2
361,125,5,0.0139009689478904,0.00889600976577401,2
362,125,5,0.00242618448157473,0.0126344701304646,2
363,125,5,0.0358129243915465,0.00846875715266651,2
364,125,5,0.0124971389333944,0.00880445563439384,2
361,126,5,0.00180056458381018,0.00848401617456321,2
362,126,5,0.00207522697795071,0.00898756389715419,2
363,126,5,0.00242618448157473,0.0142366674296178,2
364,126,5,0.00177004654001678,0.0149233234149691,2
365,126,5,0.00193789578088045,0.0111390859845884,2
360,127,5,0.00250247959105821,0.0117036697947662,2
361,127,5,0.0499427786678874,0.00843823910887312,2
362,127,5,0.0121309224078737,0.00996414129854276,2
363,127,5,0.00221255817502098,0.0125581750209812,2
364,127,5,0.00621042191195544,0.00856031128404669,2
365,127,5,0.0254673075455863,0.0102845807583734,2
358,128,5,0.00204470893415732,0.00856031128404669,2
359,128,5,0.0280613412680247,0.00874341954680705,2
360,128,5,0.00312809948882277,0.00875867856870375,2
361,128,5,0.0357671473258564,0.0190890363927672,2
362,128,5,0.00279240100709545,0.00935378042267491,2
363,128,5,0.00187685969329366,0.00898756389715419,2
364,128,5,0.00181582360570687,0.0285801480125124,2
358,129,5,0.00190737773708705,0.0107423514152743,2
359,129,5,0.00198367284657053,0.028351262684062,2
360,129,5,0.00183108262760357,0.0238498512245365,2
361,129,5,0.00207522697795071,0.0188754100862135,2
362,129,5,0.00218204013122759,0.0117189288166629,2
363,129,5,0.00175478751812009,0.0129091325246052,2
364,129,5,0.0063782711528191,0.0119935912108034,2
357,130,5,0.0103456168459602,0.0120241092545968,2
358,130,5,0.00218204013122759,0.0128786144808118,2
359,130,5,0.00175478751812009,0.00860608834973678,2
360,130,5,0.00141908903639277,0.00857557030594339,2
361,130,5,0.0021210040436408,0.00825513084611276,2
362,130,5,0.00205996795605402,0.00814831769283589,2
363,130,5,0.00216678110933089,0.00837720302128634,2
356,131,5,0.00209048599984741,0.00854505226215,2
357,131,5,0.00135805294880598,0.0085297932402533,2
359,131,5,0.00521858548867018,0.00880445563439384,2
361,131,5,0.00146486610208286,0.0128938735027085,2
362,131,5,0.00166323338673991,0.0119020370794232,2
361,132,5,0.0147859922178988,0.0137941557946136,2
363,121,6,0.00279240100709545,0.0117494468604562,2
362,122,6,0.00880445563439384,0.00846875715266651,2
363,122,6,0.0131074998092622,0.007690547035935,2
364,122,6,0.00686655985351339,0.00788891432059205,2
362,123,6,0.00205996795605402,0.00804150453955901,2
363,123,6,0.00228885328450446,0.00804150453955901,2
364,123,6,0.00201419089036393,0.00819409475852598,2
361,124,6,0.00581368734264134,0.00846875715266651,2
362,124,6,0.00221255817502098,0.0173800259403372,2
363,124,6,0.00209048599984741,0.0128480964370184,2
364,124,6,0.00231937132829786,0.0166781109330892,2
361,125,6,0.00222781719691768,0.00846875715266651,2
362,125,6,0.00218204013122759,0.00854505226215,2
363,125,6,0.0155184252689403,0.0189364461738003,2
364,125,6,0.0104676890211337,0.0104371709773404,2
365,125,6,0.0355840390630961,0.00869764248111696,2
360,126,6,0.0128023193713283,0.00791943236438544,2
361,126,6,0.0255130846112764,0.00836194399938964,2
362,126,6,0.00228885328450446,0.00862134737163348,2
363,126,6,0.00250247959105821,0.0102998397802701,2
364,126,6,0.00241092545967803,0.00817883573662928,2
365,126,6,0.00193789578088045,0.00796520943007553,2
360,127,6,0.00192263675898375,0.00831616693369955,2
361,127,6,0.011306935225452,0.00759899290455482,2
362,127,6,0.0104219119554437,0.00932326237888151,2
363,127,6,0.00164797436484321,0.0171053635461967,2
364,127,6,0.00228885328450446,0.00834668497749294,2
365,127,6,0.00239566643778134,0.0108796826123445,2
359,128,6,0.00868238345922026,0.00759899290455482,2
360,128,6,0.0111390859845884,0.00831616693369955,2
361,128,6,0.00654612039368277,0.00849927519645991,2
362,128,6,0.0210574502174411,0.00817883573662928,2
363,128,6,0.00323491264209964,0.00740062561989776,2
364,128,6,0.00170901045243,0.00805676356145571,2
359,129,6,0.00221255817502098,0.00857557030594339,2
360,129,6,0.00210574502174411,0.00752269779507134,2
361,129,6,0.00236514839398795,0.00793469138628214,2
362,129,6,0.00218204013122759,0.0202487220569162,2
363,129,6,0.00221255817502098,0.0224307621881437,2
364,129,6,0.0021362630655375,0.00837720302128634,2
357,130,6,0.00253299763485161,0.00738536659800107,2
359,130,6,0.0189211871519036,0.0201266498817426,2
360,130,6,0.00222781719691768,0.00891126878767071,2
361,130,6,0.00195315480277714,0.0130312046997787,2
362,130,6,0.00238040741588464,0.0227817196917678,2
363,130,6,0.00492866407263294,0.020706492713817,2
356,131,6,0.00181582360570687,0.00881971465629053,2
359,131,6,0.0220798046845197,0.00776684214541848,2
361,131,6,0.00167849240863661,0.0117036697947662,2
362,131,6,0.00210574502174411,0.0081177996490425,2
361,132,6,0.00230411230640116,0.0127718013275349,2
363,121,7,0.00236514839398795,0.00779736018921187,2
364,121,7,0.00805676356145571,0.00828564888990616,2
363,122,7,0.00221255817502098,0.00816357671473259,2
364,122,7,0.00190737773708705,0.007690547035935,2
365,122,7,0.00228885328450446,0.0098115510795758,2
362,123,7,0.00195315480277714,0.013519493400473,2
363,123,7,0.00738536659800107,0.0239414053559167,2
364,123,7,0.0181124589913787,0.0106202792401007,2
365,123,7,0.00233463035019455,0.00889600976577401,2
361,124,7,0.00219729915312428,0.0192721446555276,2
362,124,7,0.00260929274433509,0.00793469138628214,2
363,124,7,0.00236514839398795,0.00775158312352178,2
364,124,7,0.00216678110933089,0.00793469138628214,2
365,124,7,0.00195315480277714,0.00973525597009232,2
361,125,7,0.0017242694743267,0.00836194399938964,2
362,125,7,0.0021515220874342,0.023071641107805,2
363,125,7,0.00221255817502098,0.0081177996490425,2
364,125,7,0.00238040741588464,0.00802624551766232,2
365,125,7,0.00207522697795071,0.00834668497749294,2
360,126,7,0.00228885328450446,0.00799572747386892,2
361,126,7,0.00219729915312428,0.007690547035935,2
362,126,7,0.00186160067139696,0.0093842984664683,2
363,126,7,0.00189211871519036,0.00828564888990616,2
364,126,7,0.00202944991226062,0.00813305867093919,2
365,126,7,0.00747692072938125,0.00791943236438544,2
359,127,7,0.00183108262760357,0.0160219729915312,2
360,127,7,0.00195315480277714,0.0142214084077211,2
361,127,7,0.00198367284657053,0.00866712443732357,2
362,127,7,0.00282291905088884,0.00793469138628214,2
363,127,7,0.00178530556191348,0.00785839627679866,2
364,127,7,0.00173952849622339,0.0108186465247578,2
365,127,7,0.0012664988174258,0.0109864957656214,2
358,128,7,0.00216678110933089,0.0080872816052491,2
359,128,7,0.00233463035019455,0.0115358205539025,2
360,128,7,0.00166323338673991,0.021713588158999,2
361,128,7,0.00210574502174411,0.00988784618905928,2
362,128,7,0.00248722056916152,0.00819409475852598,2
363,128,7,0.00268558785381857,0.00817883573662928,2
364,128,7,0.0021515220874342,0.00814831769283589,2
357,129,7,0.0135805294880598,0.00875867856870375,2
359,129,7,0.00184634164950027,0.00820935378042268,2
360,129,7,0.00538643472953384,0.00842298008697642,2
361,129,7,0.00219729915312428,0.00924696726939803,2
362,129,7,0.00193789578088045,0.0195468070496681,2
363,129,7,0.00408941786831464,0.00923170824750134,2
364,129,7,0.00471503776607919,0.00849927519645991,2
356,130,7,0.00148012512397955,0.0168001831082628,2
357,130,7,0.00190737773708705,0.0137483787289235,2
359,130,7,0.00292973220416571,0.0128786144808118,2
360,130,7,0.00238040741588464,0.0085297932402533,2
361,130,7,0.0159456778820478,0.00822461280231937,2
362,130,7,0.0184023804074159,0.0076752880140383,2
363,130,7,0.00248722056916152,0.0124208438239109,2
361,131,7,0.00219729915312428,0.0216983291371023,2
362,131,7,0.0021362630655375,0.0132753490501259,2
361,132,7,0.00205996795605402,0.00743114366369116,2
361,120,8,0.00259403372243839,0.00892652780956741,2
362,120,8,0.00239566643778134,0.00831616693369955,2
363,120,8,0.00201419089036393,0.00849927519645991,2
364,120,8,0.00207522697795071,0.00819409475852598,2
361,121,8,0.00225833524071107,0.00799572747386892,2
362,121,8,0.00221255817502098,0.0145113298237583,2
363,121,8,0.00207522697795071,0.00842298008697642,2
364,121,8,0.00186160067139696,0.00831616693369955,2
361,122,8,0.00247196154726482,0.00875867856870375,2
362,122,8,0.00204470893415732,0.0085145342183566,2
363,122,8,0.00180056458381018,0.010757610437171,2
364,122,8,0.00204470893415732,0.00866712443732357,2
365,122,8,0.0021515220874342,0.00848401617456321,2
361,123,8,0.00180056458381018,0.00958266575112535,2
362,123,8,0.00737010757610437,0.00875867856870375,2
363,123,8,0.002563515678645,0.0085297932402533,2
364,123,8,0.00239566643778134,0.00842298008697642,2
365,123,8,0.0021210040436408,0.00819409475852598,2
361,124,8,0.0025787747005417,0.00830090791180285,2
362,124,8,0.00207522697795071,0.00807202258335241,2
363,124,8,0.00167849240863661,0.00869764248111696,2
364,124,8,0.00294499122606241,0.0245517662317845,2
365,124,8,0.010605020218204,0.00781261921110857,2
361,125,8,0.0021362630655375,0.0111848630502785,2
362,125,8,0.00228885328450446,0.00912489509422446,2
363,125,8,0.00225833524071107,0.0242923628595407,2
364,125,8,0.00199893186846723,0.019302662699321,2
365,125,8,0.00218204013122759,0.00825513084611276,2
360,126,8,0.0021362630655375,0.0132753490501259,2
361,126,8,0.00157167925535973,0.0112153810940719,2
362,126,8,0.0017242694743267,0.0085145342183566,2
363,126,8,0.00221255817502098,0.0134737163347829,2
364,126,8,0.00230411230640116,0.0230258640421149,2
365,126,8,0.00205996795605402,0.00837720302128634,2
359,127,8,0.00245670252536812,0.0098115510795758,2
360,127,8,0.0141298542763409,0.0116884107728695,2
361,127,8,0.00207522697795071,0.00871290150301366,2
362,127,8,0.00196841382467384,0.00830090791180285,2
363,127,8,0.00192263675898375,0.00923170824750134,2
364,127,8,0.00239566643778134,0.0118410009918364,2
359,128,8,0.00180056458381018,0.00941481651026169,2
360,128,8,0.0016937514305333,0.0103150988021668,2
361,128,8,0.00204470893415732,0.00859082932784009,2
362,128,8,0.00219729915312428,0.00804150453955901,2
363,128,8,0.00201419089036393,0.00791943236438544,2
357,129,8,0.00883497367818723,0.00889600976577401,2
360,129,8,0.0021515220874342,0.00805676356145571,2
361,129,8,0.00157167925535973,0.00888075074387732,2
362,129,8,0.00187685969329366,0.0200656137941558,2
363,129,8,0.00260929274433509,0.00988784618905928,2
356,130,8,0.00195315480277714,0.00866712443732357,2
360,130,8,0.00193789578088045,0.00813305867093919,2
361,130,8,0.023773556115053,0.00776684214541848,2
362,130,8,0.0106355382619974,0.00868238345922026,2
361,131,8,0.00230411230640116,0.00990310521095598,2
362,131,8,0.00224307621881437,0.00927748531319142,2
361,132,8,0.00219729915312428,0.00914015411612116,2
363,120,9,0.00227359426260777,0.00839246204318303,2
364,120,9,0.00218204013122759,0.00790417334248875,2
361,121,9,0.00199893186846723,0.00843823910887312,2
362,121,9,0.0021210040436408,0.00793469138628214,2
363,121,9,0.0151674677653162,0.00865186541542687,2
364,121,9,0.00241092545967803,0.00862134737163348,2
362,122,9,0.00732433051041428,0.010605020218204,2
363,122,9,0.00239566643778134,0.00837720302128634,2
364,122,9,0.00262455176623178,0.00930800335698482,2
361,123,9,0.00248722056916152,0.00859082932784009,2
362,123,9,0.00155642023346304,0.00816357671473259,2
363,123,9,0.00193789578088045,0.00880445563439384,2
364,123,9,0.00251773861295491,0.00868238345922026,2
361,124,9,0.0290074006256199,0.00822461280231937,2
362,124,9,0.00273136491950866,0.00773632410162509,2
363,124,9,0.00184634164950027,0.00807202258335241,2
364,124,9,0.00193789578088045,0.0081177996490425,2
361,125,9,0.00196841382467384,0.0081177996490425,2
362,125,9,0.00187685969329366,0.00842298008697642,2
363,125,9,0.0106355382619974,0.00816357671473259,2
364,125,9,0.00230411230640116,0.00799572747386892,2
365,125,9,0.0021210040436408,0.00859082932784009,2
360,126,9,0.00701915007248035,0.00831616693369955,2
361,126,9,0.0181124589913787,0.0128786144808118,2
362,126,9,0.00227359426260777,0.00802624551766232,2
363,126,9,0.00166323338673991,0.00862134737163348,2
364,126,9,0.00263981078812848,0.00837720302128634,2
365,126,9,0.00236514839398795,0.00813305867093919,2
359,127,9,0.00819409475852598,0.00874341954680705,2
360,127,9,0.0146028839551385,0.00993362325474937,2
361,127,9,0.0025482566567483,0.0080872816052491,2
362,127,9,0.00239566643778134,0.00799572747386892,2
363,127,9,0.00230411230640116,0.00788891432059205,2
359,128,9,0.00218204013122759,0.0169222552834363,2
360,128,9,0.00205996795605402,0.00888075074387732,2
361,128,9,0.00259403372243839,0.00849927519645991,2
362,128,9,0.00225833524071107,0.00904859998474098,2
363,128,9,0.00221255817502098,0.0140993362325475,2
361,129,9,0.00228885328450446,0.00819409475852598,2
362,129,9,0.0274662394140536,0.00862134737163348,2
359,130,9,0.00199893186846723,0.00776684214541848,2
360,130,9,0.00209048599984741,0.0103456168459602,2
361,130,9,0.00234988937209125,0.0149996185244526,2
362,130,9,0.00210574502174411,0.00816357671473259,2
361,131,9,0.00289921416037232,0.0076752880140383,2
363,120,10,0.00183108262760357,0.012161440451667,2
364,120,10,0.00202944991226062,0.0101625085831998,2
363,121,10,0.00265506981002518,0.0100099183642329,2
364,121,10,0.00236514839398795,0.00840772106507973,2
362,122,10,0.00195315480277714,0.00842298008697642,2
363,122,10,0.00225833524071107,0.0149691004806592,2
364,122,10,0.0021362630655375,0.00823987182421607,2
362,123,10,0.00245670252536812,0.00822461280231937,2
363,123,10,0.0021515220874342,0.00830090791180285,2
364,123,10,0.00205996795605402,0.00796520943007553,2
365,123,10,0.0021515220874342,0.00834668497749294,2
361,124,10,0.00218204013122759,0.00848401617456321,2
362,124,10,0.00218204013122759,0.00990310521095598,2
363,124,10,0.00244144350347143,0.00816357671473259,2
364,124,10,0.00244144350347143,0.0080872816052491,2
361,125,10,0.00231937132829786,0.00868238345922026,2
362,125,10,0.00202944991226062,0.00834668497749294,2
363,125,10,0.0021515220874342,0.0085297932402533,2
364,125,10,0.00242618448157473,0.00949111161974517,2
365,125,10,0.00219729915312428,0.00788891432059205,2
360,126,10,0.00230411230640116,0.0157167925535973,2
361,126,10,0.00967421988250553,0.00827038986800946,2
362,126,10,0.0108186465247578,0.00796520943007553,2
363,126,10,0.00221255817502098,0.00830090791180285,2
361,127,10,0.00207522697795071,0.0184023804074159,2
362,127,10,0.0021515220874342,0.00872816052491035,2
363,127,10,0.00190737773708705,0.00804150453955901,2
361,128,10,0.00201419089036393,0.00790417334248875,2
362,128,10,0.00303654535744259,0.0147707331960021,2
360,129,10,0.00253299763485161,0.00830090791180285,2
361,129,10,0.0025787747005417,0.0076752880140383,2
362,129,10,0.00216678110933089,0.00790417334248875,2
360,130,10,0.00239566643778134,0.00863660639353018,2
361,130,10,0.0129091325246052,0.0129549095902953,2
363,120,11,0.00241092545967803,0.0167849240863661,2
363,121,11,0.00204470893415732,0.00798046845197223,2
362,122,11,0.00216678110933089,0.00807202258335241,2
363,122,11,0.00187685969329366,0.00856031128404669,2
364,122,11,0.00190737773708705,0.0122987716487373,2
365,122,11,0.00196841382467384,0.00773632410162509,2
362,123,11,0.00259403372243839,0.00807202258335241,2
363,123,11,0.00202944991226062,0.00773632410162509,2
364,123,11,0.00190737773708705,0.00823987182421607,2
365,123,11,0.00236514839398795,0.00846875715266651,2
361,124,11,0.00242618448157473,0.00866712443732357,2
362,124,11,0.00231937132829786,0.00827038986800946,2
363,124,11,0.00163271534294652,0.00801098649576562,2
364,124,11,0.00181582360570687,0.00788891432059205,2
365,124,11,0.00239566643778134,0.0085145342183566,2
361,125,11,0.00558480201419089,0.0120241092545968,2
362,125,11,0.00328068970778973,0.0143129625391012,2
363,125,11,0.00282291905088884,0.00848401617456321,2
364,125,11,0.00207522697795071,0.00877393759060044,2
365,125,11,0.0016937514305333,0.00794995040817884,2
361,126,11,0.00209048599984741,0.00880445563439384,2
362,126,11,0.00183108262760357,0.00857557030594339,2
363,126,11,0.00234988937209125,0.00785839627679866,2
364,126,11,0.00228885328450446,0.00796520943007553,2
360,127,11,0.00245670252536812,0.00801098649576562,2
361,127,11,0.00198367284657053,0.00857557030594339,2
362,127,11,0.0025482566567483,0.0141145952544442,2
363,127,11,0.00186160067139696,0.0141603723201343,2
361,128,11,0.00186160067139696,0.00784313725490196,2
362,128,11,0.00209048599984741,0.00776684214541848,2
360,129,11,0.00180056458381018,0.0145571068894484,2
361,129,11,0.00222781719691768,0.00854505226215,2
360,130,11,0.00225833524071107,0.00781261921110857,2
363,120,12,0.00271610589761196,0.01025406271458,2
364,120,12,0.00248722056916152,0.0120698863202869,2
362,121,12,0.00161745632104982,0.0137941557946136,2
363,121,12,0.00190737773708705,0.00772106507972839,2
364,121,12,0.00234988937209125,0.00831616693369955,2
365,121,12,0.00259403372243839,0.00883497367818723,2
362,122,12,0.002563515678645,0.00877393759060044,2
363,122,12,0.00234988937209125,0.00836194399938964,2
364,122,12,0.00790417334248875,0.0144045166704814,2
362,123,12,0.00225833524071107,0.00849927519645991,2
363,123,12,0.00306706340123598,0.00892652780956741,2
364,123,12,0.00277714198519875,0.00874341954680705,2
365,123,12,0.00222781719691768,0.00788891432059205,2
361,124,12,0.00244144350347143,0.0109254596780346,2
362,124,12,0.00192263675898375,0.00762951094834821,2
363,124,12,0.00152590218966964,0.007690547035935,2
364,124,12,0.00236514839398795,0.0114900434882124,2
365,124,12,0.00242618448157473,0.0110933089188983,2
361,125,12,0.00228885328450446,0.0153505760280766,2
362,125,12,0.00273136491950866,0.00807202258335241,2
363,125,12,0.00260929274433509,0.00796520943007553,2
364,125,12,0.0021515220874342,0.00999465934233616,2
365,125,12,0.00224307621881437,0.010452429999237,2
360,126,12,0.00236514839398795,0.00819409475852598,2
361,126,12,0.00207522697795071,0.00804150453955901,2
362,126,12,0.00265506981002518,0.00860608834973678,2
363,126,12,0.00408941786831464,0.00877393759060044,2
364,126,12,0.00379949645227741,0.00857557030594339,2
359,127,12,0.00447089341573205,0.00889600976577401,2
360,127,12,0.00250247959105821,0.0337682154573892,2
361,127,12,0.0025482566567483,0.00865186541542687,2
362,127,12,0.00175478751812009,0.00781261921110857,2
363,127,12,0.00175478751812009,0.00819409475852598,2
364,127,12,0.00236514839398795,0.00976577401388571,2
361,128,12,0.00225833524071107,0.00881971465629053,2
362,128,12,0.00308232242313268,0.00834668497749294,2
363,128,12,0.0163424124513619,0.00779736018921187,2
360,129,12,0.00270084687571527,0.00785839627679866,2
361,129,12,0.00199893186846723,0.00796520943007553,2
363,120,13,0.00228885328450446,0.00854505226215,2
364,120,13,0.00195315480277714,0.0134279392690929,2
363,121,13,0.00199893186846723,0.00834668497749294,2
364,121,13,0.00225833524071107,0.013519493400473,2
365,121,13,0.0016937514305333,0.00950637064164187,2
362,122,13,0.00228885328450446,0.00889600976577401,2
363,122,13,0.00193789578088045,0.0126497291523613,2
364,122,13,0.00219729915312428,0.00793469138628214,2
365,122,13,0.00193789578088045,0.00779736018921187,2
362,123,13,0.00224307621881437,0.00836194399938964,2
363,123,13,0.00262455176623178,0.0085297932402533,2
364,123,13,0.00207522697795071,0.00846875715266651,2
365,123,13,0.00250247959105821,0.00869764248111696,2
361,124,13,0.00192263675898375,0.0108796826123445,2
362,124,13,0.00163271534294652,0.00827038986800946,2
363,124,13,0.0021210040436408,0.00782787823300526,2
364,124,13,0.00202944991226062,0.00866712443732357,2
365,124,13,0.00239566643778134,0.00889600976577401,2
361,125,13,0.00247196154726482,0.0119935912108034,2
362,125,13,0.00227359426260777,0.0103150988021668,2
363,125,13,0.00202944991226062,0.0128480964370184,2
364,125,13,0.00209048599984741,0.00827038986800946,2
365,125,13,0.00218204013122759,0.00848401617456321,2
360,126,13,0.0021362630655375,0.00880445563439384,2
361,126,13,0.00218204013122759,0.0085145342183566,2
362,126,13,0.00263981078812848,0.00842298008697642,2
363,126,13,0.00279240100709545,0.00828564888990616,2
364,126,13,0.00259403372243839,0.00830090791180285,2
359,127,13,0.00225833524071107,0.00805676356145571,2
360,127,13,0.00263981078812848,0.00845349813076982,2
361,127,13,0.00233463035019455,0.00868238345922026,2
362,127,13,0.0021210040436408,0.00839246204318303,2
363,127,13,0.00192263675898375,0.00828564888990616,2
364,127,13,0.00260929274433509,0.00854505226215,2
360,128,13,0.00195315480277714,0.00988784618905928,2
361,128,13,0.00242618448157473,0.0132753490501259,2
362,128,13,0.00239566643778134,0.0085297932402533,2
363,128,13,0.00227359426260777,0.00903334096284428,2
360,129,13,0.00155642023346304,0.00860608834973678,2
361,129,13,0.00167849240863661,0.00823987182421607,2
362,121,14,0.00288395513847562,0.0081177996490425,2
363,121,14,0.00271610589761196,0.00859082932784009,2
364,121,14,0.00204470893415732,0.00816357671473259,2
362,122,14,0.00221255817502098,0.0085297932402533,2
363,122,14,0.00521858548867018,0.00794995040817884,2
364,122,14,0.00239566643778134,0.00823987182421607,2
362,123,14,0.00265506981002518,0.0119172961013199,2
363,123,14,0.00251773861295491,0.00833142595559625,2
364,123,14,0.00177004654001678,0.00860608834973678,2
361,124,14,0.00181582360570687,0.00842298008697642,2
362,124,14,0.0021362630655375,0.00860608834973678,2
363,124,14,0.00262455176623178,0.0085145342183566,2
364,124,14,0.0021515220874342,0.00830090791180285,2
361,125,14,0.0021362630655375,0.00865186541542687,2
362,125,14,0.00201419089036393,0.00875867856870375,2
363,125,14,0.00205996795605402,0.00848401617456321,2
364,125,14,0.00202944991226062,0.00999465934233616,2
360,126,14,0.00227359426260777,0.0211184863050278,2
361,126,14,0.00251773861295491,0.00814831769283589,2
362,126,14,0.0025482566567483,0.00831616693369955,2
363,126,14,0.0025482566567483,0.00860608834973678,2
364,126,14,0.0025787747005417,0.00842298008697642,2
359,127,14,0.00270084687571527,0.00849927519645991,2
360,127,14,0.00221255817502098,0.00817883573662928,2
361,127,14,0.00273136491950866,0.0085145342183566,2
362,127,14,0.00236514839398795,0.00827038986800946,2
363,127,14,0.00198367284657053,0.00970473792629892,2
360,128,14,0.00239566643778134,0.00840772106507973,2
361,128,14,0.00219729915312428,0.0126344701304646,2
362,128,14,0.00196841382467384,0.00831616693369955,2
360,129,14,0.00244144350347143,0.00930800335698482,2
361,129,14,0.00204470893415732,0.0108339055466545,2
363,121,15,0.00236514839398795,0.00875867856870375,2
362,123,15,0.00288395513847562,0.00827038986800946,2
363,123,15,0.00219729915312428,0.00830090791180285,2
361,124,15,0.00190737773708705,0.00917067215991455,2
362,124,15,0.00245670252536812,0.00888075074387732,2
363,124,15,0.0025787747005417,0.0085297932402533,2
361,125,15,0.00238040741588464,0.0081025406271458,2
362,125,15,0.00177004654001678,0.00817883573662928,2
363,125,15,0.00253299763485161,0.00859082932784009,2
360,126,15,0.00210574502174411,0.00836194399938964,2
361,126,15,0.00262455176623178,0.00859082932784009,2
362,126,15,0.00219729915312428,0.00988784618905928,2
361,127,15,0.00260929274433509,0.00914015411612116,2
362,127,15,0.00218204013122759,0.00836194399938964,2
361,128,15,0.0021515220874342,0.00863660639353018,2
362,128,15,0.00198367284657053,0.00833142595559625,2
361,129,15,0.0021362630655375,0.00965896086060884,2
361,124,16,0.00233463035019455,0.00880445563439384,2
362,124,16,0.00202944991226062,0.00791943236438544,2
362,125,16,0.00181582360570687,0.0113527122911421,2
361,126,16,0.00706492713817044,0.00849927519645991,2
362,126,16,0.00567635614557107,0.00898756389715419,2
361,127,16,0.00193789578088045,0.00836194399938964,2
362,127,16,0.0016937514305333,0.00817883573662928,2
361,128,16,0.00190737773708705,0.00834668497749294,2
363,130,1,0.00201419089036393,0.00817883573662928,2
364,130,1,0.00225833524071107,0.0146334019989319,2
363,131,1,0.0021210040436408,0.00854505226215,2
364,131,1,0.00221255817502098,0.0138094148165103,2
363,132,1,0.00192263675898375,0.0175173571374075,2
364,132,1,0.0142366674296178,0.0242465857938506,2
363,133,1,0.00207522697795071,0.0149843595025559,2
364,133,1,0.00181582360570687,0.0127412832837415,2
363,130,2,0.00439459830624857,0.0254215304798962,2
364,130,2,0.00430304417486839,0.0200961318379492,2
363,131,2,0.00216678110933089,0.00863660639353018,2
364,131,2,0.00366216525520714,0.00875867856870375,2
363,132,2,0.00186160067139696,0.00831616693369955,2
364,132,2,0.00221255817502098,0.0132906080720226,2
363,133,2,0.00227359426260777,0.0178988326848249,2
364,133,2,0.00210574502174411,0.00830090791180285,2
363,134,2,0.00807202258335241,0.00892652780956741,2
364,128,3,0.00210574502174411,0.0104371709773404,2
365,128,3,0.0177767605096513,0.00813305867093919,2
364,129,3,0.00309758144502937,0.00866712443732357,2
365,129,3,0.00537117570763714,0.00817883573662928,2
364,130,3,0.0253604943923095,0.00761425192645151,2
365,130,3,0.00564583810177768,0.00833142595559625,2
364,131,3,0.00202944991226062,0.013321126115816,2
365,131,3,0.00170901045243,0.012161440451667,2
364,132,3,0.00636301213092241,0.0143282215609979,2
364,133,3,0.00175478751812009,0.0112764171816587,2
363,134,3,0.00210574502174411,0.00886549172198062,2
365,128,4,0.0059662775616083,0.00845349813076982,2
365,129,4,0.0130312046997787,0.0146181429770352,2
365,130,4,0.00199893186846723,0.00836194399938964,2
365,131,4,0.00184634164950027,0.00862134737163348,2
364,132,4,0.00224307621881437,0.0127412832837415,2
365,131,8,0.0021362630655375,0.0103608758678569,2
365,132,8,0.00274662394140536,0.00819409475852598,2
364,133,8,0.00187685969329366,0.00888075074387732,2
363,134,8,0.00201419089036393,0.0160677500572213,2
362,132,1,0.00161745632104982,0.0134279392690929,2
361,133,1,0.00285343709468223,0.00976577401388571,2
362,133,1,0.00749217975127794,0.023270008392462,2
362,132,2,0.00209048599984741,0.0186770428015564,2
362,133,2,0.00210574502174411,0.0182345311665522,2
363,131,3,0.0205844205386435,0.0103913939116503,2
362,132,3,0.0203707942320897,0.0164034485389487,2
363,132,3,0.00328068970778973,0.0120088502327001,2
362,133,3,0.00267032883192187,0.0107118333714809,2
364,130,4,0.00221255817502098,0.00825513084611276,2
363,131,4,0.00674448767833982,0.00820935378042268,2
364,131,4,0.00189211871519036,0.00834668497749294,2
365,128,5,0.00219729915312428,0.0118867780575265,2
365,129,5,0.0349889372091249,0.010757610437171,2
367,129,5,0.00166323338673991,0.00943007553215839,2
364,130,5,0.00163271534294652,0.00848401617456321,2
365,130,5,0.00190737773708705,0.00837720302128634,2
366,130,5,0.00205996795605402,0.0076600289921416,2
365,131,5,0.00770580605783169,0.010605020218204,2
362,132,7,0.00234988937209125,0.00784313725490196,2
361,133,7,0.0021210040436408,0.00833142595559625,2
364,128,8,0.00199893186846723,0.00860608834973678,2
364,129,8,0.00244144350347143,0.00802624551766232,2
363,130,8,0.00679026474402991,0.00889600976577401,2
363,131,8,0.00221255817502098,0.00973525597009232,2
362,132,8,0.00178530556191348,0.00871290150301366,2
361,133,8,0.00247196154726482,0.00772106507972839,2
361,133,2,0.0034332799267567,0.00900282291905089,2
362,134,2,0.00146486610208286,0.00785839627679866,2
361,132,3,0.0274357213702602,0.0113832303349355,2
361,133,3,0.00244144350347143,0.0200350957503624,2
363,133,3,0.00178530556191348,0.0110780498970016,2
362,134,3,0.0021210040436408,0.0139772640573739,2
362,132,4,0.0107118333714809,0.0188906691081102,2
363,132,4,0.0021362630655375,0.0130464637216754,2
365,132,4,0.00921644922560464,0.0111390859845884,2
366,132,4,0.0021515220874342,0.0119325551232166,2
361,133,4,0.00204470893415732,0.0180361638818952,2
362,133,4,0.00231937132829786,0.0130769817654688,2
363,133,4,0.00192263675898375,0.0108491645685512,2
364,133,4,0.0025482566567483,0.015030136568246,2
362,134,4,0.00924696726939803,0.0102845807583734,2
363,134,4,0.00199893186846723,0.0115968566414893,2
364,134,4,0.020004577706569,0.0081177996490425,2
362,135,4,0.00253299763485161,0.00854505226215,2
363,135,4,0.0108491645685512,0.00883497367818723,2
367,130,5,0.00279240100709545,0.0161135271229114,2
369,130,5,0.0016937514305333,0.00935378042267491,2
363,131,5,0.00195315480277714,0.0219882505531395,2
364,131,5,0.00242618448157473,0.00959792477302205,2
366,131,5,0.00279240100709545,0.00888075074387732,2
367,131,5,0.0256961928740368,0.0158388647287709,2
368,131,5,0.00230411230640116,0.00875867856870375,2
362,132,5,0.00241092545967803,0.00889600976577401,2
363,132,5,0.0021210040436408,0.0105592431525139,2
364,132,5,0.0102693217364767,0.00999465934233616,2
365,132,5,0.00883497367818723,0.0226749065384909,2
366,132,5,0.00488288700694285,0.00914015411612116,2
367,132,5,0.00192263675898375,0.00865186541542687,2
361,133,5,0.00204470893415732,0.00885023270008392,2
362,133,5,0.00253299763485161,0.00819409475852598,2
363,133,5,0.00195315480277714,0.0081025406271458,2
364,133,5,0.00196841382467384,0.0127718013275349,2
365,133,5,0.0017242694743267,0.0120698863202869,2
366,133,5,0.017944609750515,0.00827038986800946,2
361,134,5,0.0021362630655375,0.00865186541542687,2
362,134,5,0.00181582360570687,0.00874341954680705,2
363,134,5,0.00209048599984741,0.00920119020370794,2
364,134,5,0.00198367284657053,0.017288471808957,2
366,134,5,0.00181582360570687,0.0130312046997787,2
362,135,5,0.0130312046997787,0.0114900434882124,2
363,135,5,0.0111238269626917,0.00878919661249714,2
364,135,5,0.00376897840848402,0.0154268711375601,2
365,128,6,0.00230411230640116,0.0121461814297704,2
367,128,6,0.00198367284657053,0.00787365529869535,2
370,128,6,0.00219729915312428,0.00860608834973678,2
365,129,6,0.00144960708018616,0.00791943236438544,2
367,129,6,0.00236514839398795,0.0120393682764935,2
368,129,6,0.00531013962005035,0.0093690394445716,2
369,129,6,0.00946059357595178,0.00816357671473259,2
370,129,6,0.00248722056916152,0.00950637064164187,2
364,130,6,0.0196688792248417,0.0142519264515145,2
365,130,6,0.00219729915312428,0.00929274433508812,2
366,130,6,0.00247196154726482,0.0126192111085679,2
367,130,6,0.00210574502174411,0.00817883573662928,2
368,130,6,0.0016937514305333,0.00929274433508812,2
369,130,6,0.00241092545967803,0.0102845807583734,2
370,130,6,0.00279240100709545,0.00825513084611276,2
363,131,6,0.00173952849622339,0.00798046845197223,2
364,131,6,0.00198367284657053,0.00794995040817884,2
365,131,6,0.00201419089036393,0.00839246204318303,2
366,131,6,0.00209048599984741,0.00921644922560464,2
367,131,6,0.00253299763485161,0.0106813153276875,2
368,131,6,0.00201419089036393,0.00932326237888151,2
369,131,6,0.00195315480277714,0.00825513084611276,2
362,132,6,0.00224307621881437,0.00994888227664607,2
363,132,6,0.00222781719691768,0.00845349813076982,2
364,132,6,0.00193789578088045,0.00804150453955901,2
365,132,6,0.00265506981002518,0.0183718623636225,2
366,132,6,0.0183413443198291,0.0139925230792706,2
367,132,6,0.0021515220874342,0.014373998626688,2
368,132,6,0.00920119020370794,0.0144502937361715,2
361,133,6,0.00201419089036393,0.00817883573662928,2
362,133,6,0.00231937132829786,0.00791943236438544,2
363,133,6,0.00245670252536812,0.0081177996490425,2
364,133,6,0.00227359426260777,0.00881971465629053,2
365,133,6,0.00193789578088045,0.0138857099259937,2
366,133,6,0.0025482566567483,0.00857557030594339,2
367,133,6,0.00268558785381857,0.00846875715266651,2
361,134,6,0.00190737773708705,0.00878919661249714,2
362,134,6,0.00209048599984741,0.00834668497749294,2
363,134,6,0.0021515220874342,0.00791943236438544,2
364,134,6,0.00244144350347143,0.00782787823300526,2
366,134,6,0.00160219729915312,0.00813305867093919,2
362,135,6,0.00157167925535973,0.0128023193713283,2
363,135,6,0.00219729915312428,0.0145113298237583,2
364,135,6,0.0251010910200656,0.00927748531319142,2
365,128,7,0.00166323338673991,0.00796520943007553,2
371,128,7,0.00199893186846723,0.0141298542763409,2
365,129,7,0.00231937132829786,0.0130617227435721,2
366,129,7,0.00227359426260777,0.0117189288166629,2
367,129,7,0.00440985732814527,0.00859082932784009,2
368,129,7,0.00547798886091402,0.00819409475852598,2
369,129,7,0.00482185091935607,0.00790417334248875,2
370,129,7,0.00241092545967803,0.00814831769283589,2
371,129,7,0.019851987487602,0.00822461280231937,2
364,130,7,0.0059510185397116,0.00817883573662928,2
365,130,7,0.00399786373693446,0.00921644922560464,2
366,130,7,0.00199893186846723,0.009399557488365,2
367,130,7,0.00579842832074464,0.007690547035935,2
368,130,7,0.0021362630655375,0.00753795681696803,2
369,130,7,0.00195315480277714,0.00842298008697642,2
370,130,7,0.00184634164950027,0.0081025406271458,2
364,131,7,0.00270084687571527,0.00773632410162509,2
365,131,7,0.00695811398489357,0.0116884107728695,2
366,131,7,0.00735484855420768,0.0116731517509728,2
367,131,7,0.00198367284657053,0.00888075074387732,2
368,131,7,0.00236514839398795,0.00814831769283589,2
369,131,7,0.00225833524071107,0.0123445487144274,2
370,131,7,0.00247196154726482,0.0221713588158999,2
363,132,7,0.00218204013122759,0.00848401617456321,2
364,132,7,0.00186160067139696,0.00843823910887312,2
365,132,7,0.00166323338673991,0.00807202258335241,2
366,132,7,0.00263981078812848,0.007690547035935,2
367,132,7,0.00840772106507973,0.0131380178530556,2
368,132,7,0.00239566643778134,0.00898756389715419,2
369,132,7,0.00207522697795071,0.0081177996490425,2
362,133,7,0.00187685969329366,0.0184939345387961,2
363,133,7,0.00227359426260777,0.0081177996490425,2
364,133,7,0.00253299763485161,0.0157167925535973,2
365,133,7,0.00221255817502098,0.0177004654001678,2
366,133,7,0.049057755397879,0.00827038986800946,2
367,133,7,0.0161440451667048,0.00823987182421607,2
368,133,7,0.00241092545967803,0.00813305867093919,2
362,134,7,0.00247196154726482,0.0111238269626917,2
363,134,7,0.00210574502174411,0.0133363851377127,2
364,134,7,0.00231937132829786,0.0108339055466545,2
366,134,7,0.0021210040436408,0.00848401617456321,2
363,135,7,0.00524910353246357,0.00859082932784009,2
364,135,7,0.00672922865644312,0.00859082932784009,2
365,128,8,0.00196841382467384,0.0140840772106508,2
365,129,8,0.00164797436484321,0.0118562600137331,2
367,129,8,0.0296635385671778,0.00802624551766232,2
369,129,8,0.00166323338673991,0.00787365529869535,2
370,129,8,0.00143434805828946,0.00848401617456321,2
371,129,8,0.00199893186846723,0.00883497367818723,2
364,130,8,0.00440985732814527,0.00881971465629053,2
367,130,8,0.00418097199969482,0.00914015411612116,2
368,130,8,0.0016937514305333,0.00900282291905089,2
369,130,8,0.00175478751812009,0.00843823910887312,2
370,130,8,0.0212710765239948,0.00776684214541848,2
371,130,8,0.0195468070496681,0.00869764248111696,2
364,131,8,0.00196841382467384,0.00848401617456321,2
366,131,8,0.00233463035019455,0.00865186541542687,2
367,131,8,0.00201419089036393,0.00755321583886473,2
368,131,8,0.00262455176623178,0.00794995040817884,2
369,131,8,0.00181582360570687,0.0168307011520562,2
370,131,8,0.00173952849622339,0.00874341954680705,2
363,132,8,0.00198367284657053,0.00819409475852598,2
366,132,8,0.00195315480277714,0.0089723048752575,2
367,132,8,0.00170901045243,0.00869764248111696,2
368,132,8,0.00204470893415732,0.00791943236438544,2
369,132,8,0.00253299763485161,0.0176546883344778,2
362,133,8,0.00273136491950866,0.00764476997024491,2
363,133,8,0.00233463035019455,0.00849927519645991,2
365,133,8,0.00181582360570687,0.00794995040817884,2
366,133,8,0.00265506981002518,0.009399557488365,2
362,134,8,0.00488288700694285,0.00843823910887312,2
364,134,8,0.0119783321889067,0.0122377355611505,2
364,135,8,0.0017242694743267,0.00967421988250553,2
364,127,9,0.00271610589761196,0.00856031128404669,2
365,127,9,0.00239566643778134,0.00843823910887312,2
364,128,9,0.00202944991226062,0.0097962920576791,2
365,128,9,0.00251773861295491,0.00831616693369955,2
363,129,9,0.0202334630350195,0.00863660639353018,2
364,129,9,0.00230411230640116,0.00817883573662928,2
365,129,9,0.00186160067139696,0.0126344701304646,2
367,129,9,0.00288395513847562,0.0195773250934615,2
368,129,9,0.0115510795757992,0.0160677500572213,2
369,129,9,0.00244144350347143,0.0186923018234531,2
370,129,9,0.00201419089036393,0.0142977035172045,2
363,130,9,0.00210574502174411,0.00834668497749294,2
364,130,9,0.00242618448157473,0.00828564888990616,2
365,130,9,0.00344853894865339,0.00817883573662928,2
366,130,9,0.0200808728160525,0.00833142595559625,2
367,130,9,0.00190737773708705,0.0142977035172045,2
368,130,9,0.00177004654001678,0.0123903257801175,2
369,130,9,0.00250247959105821,0.00831616693369955,2
370,130,9,0.00277714198519875,0.00846875715266651,2
362,131,9,0.0496986343175402,0.00816357671473259,2
363,131,9,0.0038452735179675,0.0209811551079576,2
364,131,9,0.00195315480277714,0.00833142595559625,2
365,131,9,0.0017242694743267,0.00807202258335241,2
366,131,9,0.00247196154726482,0.0222476539253834,2
367,131,9,0.00302128633554589,0.00827038986800946,2
368,131,9,0.00250247959105821,0.00869764248111696,2
369,131,9,0.00219729915312428,0.00840772106507973,2
361,132,9,0.00236514839398795,0.00869764248111696,2
362,132,9,0.0133363851377127,0.00843823910887312,2
363,132,9,0.00619516289005875,0.00805676356145571,2
364,132,9,0.00244144350347143,0.00868238345922026,2
365,132,9,0.00892652780956741,0.00846875715266651,2
366,132,9,0.00221255817502098,0.00776684214541848,2
367,132,9,0.00251773861295491,0.0081177996490425,2
368,132,9,0.00465400167849241,0.00825513084611276,2
361,133,9,0.00408941786831464,0.00790417334248875,2
362,133,9,0.00201419089036393,0.00798046845197223,2
363,133,9,0.00219729915312428,0.00868238345922026,2
364,133,9,0.00860608834973678,0.00825513084611276,2
365,133,9,0.020355535210193,0.010955977721828,2
366,133,9,0.00219729915312428,0.00984206912336919,2
363,134,9,0.00196841382467384,0.00814831769283589,2
364,134,9,0.00189211871519036,0.00845349813076982,2
364,135,9,0.00209048599984741,0.00733958953231098,2
364,126,10,0.00234988937209125,0.0181582360570687,2
364,127,10,0.00216678110933089,0.00840772106507973,2
363,128,10,0.00289921416037232,0.00880445563439384,2
364,128,10,0.00222781719691768,0.00805676356145571,2
365,128,10,0.00173952849622339,0.00793469138628214,2
363,129,10,0.00238040741588464,0.00836194399938964,2
364,129,10,0.00233463035019455,0.00888075074387732,2
365,129,10,0.00248722056916152,0.00875867856870375,2
367,129,10,0.00193789578088045,0.0107881284809644,2
370,129,10,0.00221255817502098,0.00971999694819562,2
371,129,10,0.00202944991226062,0.00778210116731518,2
362,130,10,0.002563515678645,0.00820935378042268,2
363,130,10,0.00222781719691768,0.00820935378042268,2
364,130,10,0.00250247959105821,0.00973525597009232,2
365,130,10,0.00180056458381018,0.00779736018921187,2
366,130,10,0.00177004654001678,0.00846875715266651,2
367,130,10,0.00230411230640116,0.00820935378042268,2
369,130,10,0.00239566643778134,0.0108796826123445,2
370,130,10,0.00155642023346304,0.00968947890440223,2
371,130,10,0.00187685969329366,0.00813305867093919,2
361,131,10,0.00166323338673991,0.00807202258335241,2
362,131,10,0.00205996795605402,0.00823987182421607,2
363,131,10,0.00186160067139696,0.00846875715266651,2
364,131,10,0.00202944991226062,0.0151522087434195,2
365,131,10,0.00202944991226062,0.00791943236438544,2
366,131,10,0.00193789578088045,0.00788891432059205,2
367,131,10,0.00218204013122759,0.00820935378042268,2
368,131,10,0.00236514839398795,0.00830090791180285,2
369,131,10,0.00239566643778134,0.00776684214541848,2
361,132,10,0.00273136491950866,0.00961318379491875,2
362,132,10,0.00199893186846723,0.00874341954680705,2
363,132,10,0.0021515220874342,0.00912489509422446,2
364,132,10,0.00219729915312428,0.00906385900663768,2
365,132,10,0.00225833524071107,0.0128023193713283,2
366,132,10,0.00230411230640116,0.00856031128404669,2
367,132,10,0.00218204013122759,0.00764476997024491,2
361,133,10,0.00178530556191348,0.00831616693369955,2
362,133,10,0.00210574502174411,0.00846875715266651,2
363,133,10,0.00233463035019455,0.00860608834973678,2
364,133,10,0.00189211871519036,0.00759899290455482,2
365,133,10,0.00201419089036393,0.00831616693369955,2
362,134,10,0.0025482566567483,0.00813305867093919,2
363,134,10,0.00221255817502098,0.00813305867093919,2
364,134,10,0.0021515220874342,0.00846875715266651,2
363,135,10,0.0021210040436408,0.00813305867093919,2
364,127,11,0.00204470893415732,0.00834668497749294,2
365,127,11,0.00253299763485161,0.00898756389715419,2
371,127,11,0.00199893186846723,0.00840772106507973,2
363,128,11,0.00239566643778134,0.00854505226215,2
364,128,11,0.00198367284657053,0.0085145342183566,2
365,128,11,0.00152590218966964,0.010955977721828,2
371,128,11,0.00262455176623178,0.00790417334248875,2
362,129,11,0.00155642023346304,0.00857557030594339,2
363,129,11,0.0055237659266041,0.0215457389181353,2
364,129,11,0.00221255817502098,0.00788891432059205,2
365,129,11,0.00173952849622339,0.00834668497749294,2
366,129,11,0.00218204013122759,0.00881971465629053,2
367,129,11,0.00187685969329366,0.0164187075608454,2
368,129,11,0.00199893186846723,0.00840772106507973,2
369,129,11,0.00946059357595178,0.0085297932402533,2
361,130,11,0.00663767452506294,0.0081025406271458,2
362,130,11,0.0059662775616083,0.0143282215609979,2
363,130,11,0.0021210040436408,0.00833142595559625,2
364,130,11,0.00242618448157473,0.00802624551766232,2
365,130,11,0.00190737773708705,0.0192568856336309,2
366,130,11,0.00158693827725643,0.00946059357595178,2
367,130,11,0.00233463035019455,0.00817883573662928,2
368,130,11,0.00253299763485161,0.00848401617456321,2
369,130,11,0.00239566643778134,0.00880445563439384,2
361,131,11,0.00250247959105821,0.00794995040817884,2
362,131,11,0.00177004654001678,0.00787365529869535,2
363,131,11,0.00184634164950027,0.00823987182421607,2
364,131,11,0.0021210040436408,0.00935378042267491,2
365,131,11,0.00245670252536812,0.0260776684214542,2
366,131,11,0.00196841382467384,0.00793469138628214,2
367,131,11,0.00173952849622339,0.0273289082169833,2
368,131,11,0.00251773861295491,0.0176852063782712,2
361,132,11,0.00225833524071107,0.00834668497749294,2
362,132,11,0.00488288700694285,0.0113374532692454,2
363,132,11,0.00286869611657893,0.0102082856488899,2
364,132,11,0.00149538414587625,0.010452429999237,2
365,132,11,0.00230411230640116,0.00839246204318303,2
366,132,11,0.00267032883192187,0.0085297932402533,2
367,132,11,0.0021515220874342,0.00837720302128634,2
361,133,11,0.0021210040436408,0.00856031128404669,2
362,133,11,0.00161745632104982,0.00836194399938964,2
363,133,11,0.00204470893415732,0.00849927519645991,2
364,133,11,0.00193789578088045,0.00820935378042268,2
365,133,11,0.00207522697795071,0.00822461280231937,2
362,134,11,0.00222781719691768,0.00802624551766232,2
363,134,11,0.00201419089036393,0.0113832303349355,2
364,134,11,0.00196841382467384,0.00863660639353018,2
363,135,11,0.00205996795605402,0.0166323338673991,2
365,126,12,0.00231937132829786,0.00798046845197223,2
371,126,12,0.00245670252536812,0.0148317692835889,2
365,127,12,0.0025787747005417,0.0101319905394064,2
364,128,12,0.00155642023346304,0.00839246204318303,2
365,128,12,0.00195315480277714,0.00891126878767071,2
366,128,12,0.00227359426260777,0.00846875715266651,2
367,128,12,0.00234988937209125,0.00813305867093919,2
368,128,12,0.00198367284657053,0.0081177996490425,2
369,128,12,0.00207522697795071,0.00814831769283589,2
370,128,12,0.00227359426260777,0.00862134737163348,2
371,128,12,0.00245670252536812,0.00860608834973678,2
362,129,12,0.0050965133134966,0.00933852140077821,2
363,129,12,0.0456092164492256,0.0237582970931563,2
364,129,12,0.0025787747005417,0.00898756389715419,2
365,129,12,0.00190737773708705,0.00744640268558785,2
366,129,12,0.00143434805828946,0.00819409475852598,2
367,129,12,0.00234988937209125,0.00877393759060044,2
368,129,12,0.00204470893415732,0.0212863355458915,2
369,129,12,0.0021362630655375,0.0139009689478904,2
360,130,12,0.00202944991226062,0.010101472495613,2
361,130,12,0.00273136491950866,0.0129243915465019,2
362,130,12,0.00201419089036393,0.00927748531319142,2
363,130,12,0.00210574502174411,0.00805676356145571,2
364,130,12,0.00199893186846723,0.00846875715266651,2
365,130,12,0.0021515220874342,0.0191653315022507,2
366,130,12,0.00263981078812848,0.00805676356145571,2
367,130,12,0.00199893186846723,0.00779736018921187,2
368,130,12,0.00190737773708705,0.00975051499198901,2
361,131,12,0.00250247959105821,0.00868238345922026,2
362,131,12,0.0176089112687877,0.00866712443732357,2
363,131,12,0.00265506981002518,0.0076600289921416,2
364,131,12,0.00155642023346304,0.00793469138628214,2
365,131,12,0.00205996795605402,0.0151827267872129,2
366,131,12,0.00189211871519036,0.00839246204318303,2
367,131,12,0.0025482566567483,0.00865186541542687,2
368,131,12,0.00244144350347143,0.00753795681696803,2
361,132,12,0.00180056458381018,0.0128938735027085,2
362,132,12,0.00183108262760357,0.0081177996490425,2
363,132,12,0.00210574502174411,0.00886549172198062,2
364,132,12,0.00248722056916152,0.00831616693369955,2
365,132,12,0.00244144350347143,0.00756847486076143,2
366,132,12,0.00184634164950027,0.00791943236438544,2
367,132,12,0.00180056458381018,0.00817883573662928,2
362,133,12,0.0244449530785077,0.00840772106507973,2
363,133,12,0.00160219729915312,0.0150606546120394,2
364,133,12,0.00234988937209125,0.0130922407873655,2
365,133,12,0.0021210040436408,0.0138399328603037,2
362,134,12,0.00262455176623178,0.0207522697795071,2
363,134,12,0.00248722056916152,0.00910963607232776,2
364,134,12,0.00202944991226062,0.00770580605783169,2
365,126,13,0.0170290684367132,0.00845349813076982,2
369,126,13,0.00201419089036393,0.0081025406271458,2
371,126,13,0.00222781719691768,0.00819409475852598,2
365,127,13,0.00247196154726482,0.0136568245975433,2
367,127,13,0.00210574502174411,0.0080872816052491,2
369,127,13,0.00285343709468223,0.00869764248111696,2
370,127,13,0.00178530556191348,0.00819409475852598,2
371,127,13,0.00173952849622339,0.00799572747386892,2
364,128,13,0.00881971465629053,0.0159914549477378,2
365,128,13,0.00219729915312428,0.00834668497749294,2
366,128,13,0.00267032883192187,0.00839246204318303,2
367,128,13,0.00242618448157473,0.00840772106507973,2
368,128,13,0.00242618448157473,0.00856031128404669,2
369,128,13,0.00204470893415732,0.00819409475852598,2
370,128,13,0.00224307621881437,0.00854505226215,2
362,129,13,0.002563515678645,0.00845349813076982,2
363,129,13,0.00224307621881437,0.0188754100862135,2
364,129,13,0.00239566643778134,0.0148317692835889,2
365,129,13,0.00167849240863661,0.00862134737163348,2
366,129,13,0.00222781719691768,0.00968947890440223,2
367,129,13,0.002563515678645,0.00860608834973678,2
368,129,13,0.00198367284657053,0.0103608758678569,2
369,129,13,0.0021515220874342,0.00892652780956741,2
361,130,13,0.00189211871519036,0.00874341954680705,2
362,130,13,0.00190737773708705,0.00871290150301366,2
363,130,13,0.00198367284657053,0.00813305867093919,2
364,130,13,0.00234988937209125,0.00845349813076982,2
365,130,13,0.00199893186846723,0.00880445563439384,2
366,130,13,0.00205996795605402,0.00860608834973678,2
367,130,13,0.0021210040436408,0.00822461280231937,2
368,130,13,0.00788891432059205,0.0181887541008621,2
361,131,13,0.00245670252536812,0.0209506370641642,2
362,131,13,0.00186160067139696,0.00892652780956741,2
363,131,13,0.00244144350347143,0.00880445563439384,2
364,131,13,0.00250247959105821,0.00843823910887312,2
365,131,13,0.00251773861295491,0.0174563210498207,2
366,131,13,0.00247196154726482,0.00854505226215,2
367,131,13,0.00196841382467384,0.00868238345922026,2
361,132,13,0.00260929274433509,0.00817883573662928,2
362,132,13,0.00224307621881437,0.0085297932402533,2
363,132,13,0.0021362630655375,0.00820935378042268,2
364,132,13,0.0021362630655375,0.0113679713130388,2
365,132,13,0.00239566643778134,0.015030136568246,2
362,133,13,0.00210574502174411,0.0113527122911421,2
363,133,13,0.00222781719691768,0.00862134737163348,2
364,133,13,0.00187685969329366,0.00874341954680705,2
362,134,13,0.00175478751812009,0.00843823910887312,2
363,134,13,0.00222781719691768,0.00874341954680705,2
371,125,14,0.00199893186846723,0.00874341954680705,2
365,126,14,0.00196841382467384,0.00843823910887312,2
368,126,14,0.00276188296330205,0.00881971465629053,2
369,126,14,0.00236514839398795,0.00854505226215,2
370,126,14,0.0021210040436408,0.00827038986800946,2
364,127,14,0.00207522697795071,0.0121004043640803,2
365,127,14,0.0021515220874342,0.00857557030594339,2
367,127,14,0.00201419089036393,0.00854505226215,2
368,127,14,0.00192263675898375,0.00828564888990616,2
369,127,14,0.00592050049591821,0.00837720302128634,2
370,127,14,0.00445563439383535,0.00837720302128634,2
371,127,14,0.00190737773708705,0.00842298008697642,2
363,128,14,0.00209048599984741,0.00836194399938964,2
364,128,14,0.00204470893415732,0.00831616693369955,2
365,128,14,0.00263981078812848,0.00840772106507973,2
366,128,14,0.00195315480277714,0.0126497291523613,2
367,128,14,0.00207522697795071,0.0160982681010147,2
368,128,14,0.00196841382467384,0.00827038986800946,2
369,128,14,0.014023041123064,0.0117036697947662,2
370,128,14,0.00260929274433509,0.0119020370794232,2
362,129,14,0.0137178606851301,0.0115358205539025,2
363,129,14,0.00601205462729839,0.00827038986800946,2
364,129,14,0.00439459830624857,0.00833142595559625,2
365,129,14,0.00210574502174411,0.00886549172198062,2
366,129,14,0.00262455176623178,0.00848401617456321,2
367,129,14,0.0034027618829633,0.00833142595559625,2
368,129,14,0.0317387655451286,0.00854505226215,2
361,130,14,0.00209048599984741,0.00805676356145571,2
362,130,14,0.00210574502174411,0.0110170138094148,2
363,130,14,0.00221255817502098,0.0131074998092622,2
364,130,14,0.00271610589761196,0.00790417334248875,2
365,130,14,0.002563515678645,0.00817883573662928,2
366,130,14,0.00207522697795071,0.00961318379491875,2
367,130,14,0.00387579156176089,0.00820935378042268,2
361,131,14,0.00234988937209125,0.00866712443732357,2
362,131,14,0.0129091325246052,0.00775158312352178,2
363,131,14,0.00227359426260777,0.011810482948043,2
364,131,14,0.00189211871519036,0.00860608834973678,2
365,131,14,0.00193789578088045,0.00822461280231937,2
366,131,14,0.00242618448157473,0.00819409475852598,2
361,132,14,0.00202944991226062,0.00782787823300526,2
362,132,14,0.00238040741588464,0.0107270923933776,2
363,132,14,0.00296025024795911,0.00788891432059205,2
364,132,14,0.00205996795605402,0.0085297932402533,2
365,132,14,0.00234988937209125,0.00837720302128634,2
362,133,14,0.0101167315175097,0.0110780498970016,2
363,133,14,0.0068055237659266,0.00828564888990616,2
364,133,14,0.00221255817502098,0.00814831769283589,2
362,134,14,0.00230411230640116,0.00831616693369955,2
369,125,15,0.00224307621881437,0.00863660639353018,2
370,125,15,0.00233463035019455,0.00773632410162509,2
371,125,15,0.00189211871519036,0.00816357671473259,2
365,126,15,0.00238040741588464,0.00848401617456321,2
369,126,15,0.00224307621881437,0.00881971465629053,2
370,126,15,0.0021210040436408,0.00822461280231937,2
371,126,15,0.0025787747005417,0.007690547035935,2
364,127,15,0.00233463035019455,0.00865186541542687,2
365,127,15,0.00230411230640116,0.00856031128404669,2
367,127,15,0.00239566643778134,0.00837720302128634,2
368,127,15,0.00230411230640116,0.00927748531319142,2
369,127,15,0.00209048599984741,0.0116731517509728,2
370,127,15,0.00207522697795071,0.012161440451667,2
363,128,15,0.00204470893415732,0.00816357671473259,2
364,128,15,0.00328068970778973,0.00827038986800946,2
365,128,15,0.00662241550316625,0.00799572747386892,2
366,128,15,0.00205996795605402,0.00776684214541848,2
367,128,15,0.00245670252536812,0.00823987182421607,2
368,128,15,0.00205996795605402,0.0148928053711757,2
369,128,15,0.0025787747005417,0.0085145342183566,2
362,129,15,0.00233463035019455,0.00965896086060884,2
363,129,15,0.00238040741588464,0.00798046845197223,2
364,129,15,0.00265506981002518,0.00863660639353018,2
365,129,15,0.00227359426260777,0.00891126878767071,2
366,129,15,0.00216678110933089,0.00856031128404669,2
367,129,15,0.00201419089036393,0.007690547035935,2
361,130,15,0.00242618448157473,0.0154268711375601,2
362,130,15,0.00242618448157473,0.0149691004806592,2
363,130,15,0.0021362630655375,0.00819409475852598,2
364,130,15,0.00247196154726482,0.00816357671473259,2
365,130,15,0.00231937132829786,0.00787365529869535,2
366,130,15,0.0200350957503624,0.00833142595559625,2
361,131,15,0.0143434805828946,0.00842298008697642,2
362,131,15,0.0319371328297856,0.00770580605783169,2
363,131,15,0.00581368734264134,0.00804150453955901,2
364,131,15,0.00184634164950027,0.0085297932402533,2
365,131,15,0.00205996795605402,0.00866712443732357,2
362,132,15,0.00227359426260777,0.00863660639353018,2
363,132,15,0.00259403372243839,0.00910963607232776,2
362,133,15,0.0372320134279393,0.00836194399938964,2
368,126,16,0.00180056458381018,0.00863660639353018,2
369,126,16,0.00161745632104982,0.00823987182421607,2
370,126,16,0.00563057907988098,0.00839246204318303,2
371,126,16,0.002563515678645,0.00874341954680705,2
364,127,16,0.00199893186846723,0.00834668497749294,2
367,127,16,0.00164797436484321,0.0115205615320058,2
368,127,16,0.00209048599984741,0.00836194399938964,2
369,127,16,0.00231937132829786,0.00846875715266651,2
370,127,16,0.00158693827725643,0.00805676356145571,2
363,128,16,0.00134279392690929,0.0135500114442664,2
364,128,16,0.00205996795605402,0.00866712443732357,2
366,128,16,0.00265506981002518,0.00831616693369955,2
367,128,16,0.00195315480277714,0.00930800335698482,2
368,128,16,0.00170901045243,0.0240024414435035,2
369,128,16,0.00199893186846723,0.00859082932784009,2
361,129,16,0.00149538414587625,0.0118715190356298,2
362,129,16,0.0021515220874342,0.00869764248111696,2
363,129,16,0.00273136491950866,0.00834668497749294,2
364,129,16,0.00227359426260777,0.00794995040817884,2
365,129,16,0.00137331197070268,0.00842298008697642,2
366,129,16,0.00146486610208286,0.00842298008697642,2
361,130,16,0.0021515220874342,0.015884641794461,2
362,130,16,0.00166323338673991,0.00830090791180285,2
363,130,16,0.00131227588311589,0.00834668497749294,2
364,130,16,0.00177004654001678,0.00840772106507973,2
365,130,16,0.0021210040436408,0.00834668497749294,2
362,131,16,0.00196841382467384,0.00978103303578241,2
363,131,16,0.00225833524071107,0.0115663385976959,2
364,131,16,0.0021362630655375,0.00859082932784009,2
362,132,16,0.00166323338673991,0.0105897611963073,2
363,132,16,0.00218204013122759,0.00991836423285267,2
363,133,16,0.00190737773708705,0.00816357671473259,2
364,128,17,0.00219729915312428,0.0085145342183566,2
368,128,17,0.00311284046692607,0.00790417334248875,2
362,129,17,0.00244144350347143,0.00901808194094758,2
366,129,17,0.0021362630655375,0.00846875715266651,2
362,130,17,0.00155642023346304,0.00793469138628214,2
363,130,17,0.00224307621881437,0.00823987182421607,2
364,130,17,0.00268558785381857,0.00840772106507973,2
